EXPLAIN
TAG	CV
TITLE	LABEL	CV50000	Test Identifier
DATE	LABEL	5/9/2025	Date
TIME	LABEL	15:48:40	Time
NOTES	NOTES	1	Notes...
	
PSTAT	PSTAT	REF600P-43058	Potentiostat
VINIT	POTEN	0.00000E+000	T	Initial E (V)
VLIMIT1	POTEN	-9.00000E-001	F	Scan Limit 1 (V)
VLIMIT2	POTEN	6.00000E-001	F	Scan Limit 2 (V)
VFINAL	POTEN	0.00000E+000	T	Final E (V)
SCANRATE	QUANT	4.99999E+004	Scan Rate (mV/s)
STEPSIZE	QUANT	1.00000E+001	Step Size (mV)
CYCLES	IQUANT	3	Cycles (#)
IMODE	SELECTOR	1	I/E Range Mode
IRANGE	QUANT	1.00000E-002	Max Current (mA)
AREA	QUANT	1.00000E+000	Sample Area (cm^2)
EQDELAY	QUANT	5.00000E+000	Equil. Time (s)
IRCOMP	SELECTOR	0	IRComp
PFCOR	QUANT	5.00000E+001	PF Corr. (ohm)
SAMPLINGMODE	SELECTOR	2	Sampling Mode
EOC	QUANT	0.1477523	Open Circuit (V)
ELECTRODETYPE	SELECTOR	0	Electrode Type
STRIPPING	TOGGLE	F	Used for Stripping
SEQUENCER	TOGGLE	TRUE	Run as Sequence
PSTATMODEL	IQUANT	7	Pstat Model
PSTATSECTION	LABEL	REF600P-43058	Pstat Section
PSTATSERIALNO	LABEL	43058	Pstat Serial Number
CTRLMODE	IQUANT	1	Control Mode
ELECTROMETER	IQUANT	0	RE=0 or CS=1
IESTAB	IQUANT	2	I/E Stability
CASPEED	IQUANT	4	Control Amp Speed
CONVENTION	IQUANT	1	Current Convention
ICHRANGE	IQUANT	2	Ich Range
ICHRANGEMODE	TOGGLE	F	Ich Auto Range
ICHOFFSETENABLE	TOGGLE	F	Ich Offset Enable
ICHOFFSET	QUANT	0	Ich Offset (V)
ICHFILTER	IQUANT	1	Ich Filter
VCHRANGE	IQUANT	2	Vch Range
VCHRANGEMODE	TOGGLE	F	Vch Auto Range
VCHOFFSETENABLE	TOGGLE	F	Vch Offset Enable
VCHOFFSET	QUANT	0	Vch Offset (V)
VCHFILTER	IQUANT	1	Vch Filter
ACHRANGE	IQUANT	2	Ach Range
ACHOFFSETENABLE	TOGGLE	F	Ach Offset Enable
ACHOFFSET	QUANT	0	Ach Offset (V)
ACHFILTER	IQUANT	1	Ach Filter
IERANGELOWERLIMIT	IQUANT	1	I/E Range Lower Limit
IERANGEMODE	TOGGLE	F	I/E AutoRange
IERANGE	IQUANT	7	I/E Range
POSFEEDENABLE	TOGGLE	F	Positive Feedback IR Comp
POSFEEDRESISTANCE	QUANT	0	Positive Feedback Resistance (ohm)
ACHSELECT	IQUANT	4	Ach Select
SENSECABLEID	IQUANT	7	Sense Cable ID
PWRCABLEID	IQUANT	7	Power Cable ID
DCCALDATE	LABEL	5/8/2025	DC Calibration Date
ACCALDATE	LABEL	5/8/2025	AC Calibration Date
THERMOSELECT	IQUANT	1	Thermo Select
FRAMEWORKVERSION	LABEL	7.10.4	Framework Version
INSTRUMENTVERSION	LABEL	5.01	Instrument Version
COMMVERSION	LABEL	5.10	Communications Version
CPUPLDVERSION	LABEL	6.00	CPU PLD Version
CTRLPLDVERSION	LABEL	3.21	CTRL PLD Version
PSTATPLDVERSION	LABEL	0.00	PSTAT PLD Version
CURVE1	TABLE
	Pt	T	Vf	Im	Vu	Sig	Ach	IERange	Over	Temp
	#	s	V vs. Ref.	A	V	V	V	#	bits	deg C
	0	0.0002	1.47887E-001	1.14055E-008	0.00000E+000	1.47750E-001	1.21522E-003	7	...........	-327.66
	1	0.0004	1.37937E-001	-1.25677E-006	0.00000E+000	1.37750E-001	1.09022E-003	7	...........	-327.66
	2	0.0006	1.27887E-001	-2.42193E-006	0.00000E+000	1.27750E-001	9.40224E-004	7	...........	-327.66
	3	0.0008	1.17887E-001	-3.39056E-006	0.00000E+000	1.17750E-001	1.09022E-003	7	...........	-327.66
	4	0.001	1.07950E-001	-4.23392E-006	0.00000E+000	1.07750E-001	9.65224E-004	7	...........	-327.66
	5	0.0012	9.78373E-002	-4.97552E-006	0.00000E+000	9.77500E-002	1.14022E-003	7	...........	-327.66
	6	0.0014	8.79748E-002	-5.65562E-006	0.00000E+000	8.77500E-002	1.09022E-003	7	...........	-327.66
	7	0.0016	7.78748E-002	-6.27945E-006	0.00000E+000	7.77500E-002	1.11522E-003	7	...........	-327.66
	8	0.0018	6.79123E-002	-6.86628E-006	0.00000E+000	6.77500E-002	1.24022E-003	7	...........	-327.66
	9	0.002	5.79248E-002	-7.41761E-006	0.00000E+000	5.77500E-002	9.90224E-004	7	...........	-327.66
	10	0.0022	4.78373E-002	-7.94018E-006	0.00000E+000	4.77500E-002	1.01522E-003	7	...........	-327.66
	11	0.0024	3.78998E-002	-8.44325E-006	0.00000E+000	3.77500E-002	1.11522E-003	7	...........	-327.66
	12	0.0026	2.79498E-002	-8.92281E-006	0.00000E+000	2.77500E-002	1.06522E-003	7	...........	-327.66
	13	0.0028	1.79373E-002	-9.38712E-006	0.00000E+000	1.77500E-002	1.11522E-003	7	...........	-327.66
	14	0.003	7.92481E-003	-9.83419E-006	0.00000E+000	7.74999E-003	1.11522E-003	7	...........	-327.66
	15	0.0032	-2.07519E-003	-1.02675E-005	0.00000E+000	-2.25002E-003	1.06522E-003	7	...........	-327.66
	16	0.0034	-1.20502E-002	-1.06903E-005	0.00000E+000	-1.22500E-002	1.11522E-003	7	...........	-327.66
	17	0.0036	-2.21377E-002	-1.11066E-005	0.00000E+000	-2.22500E-002	1.09022E-003	7	...........	-327.66
	18	0.0038	-3.21877E-002	-1.15189E-005	0.00000E+000	-3.22500E-002	1.01522E-003	7	...........	-327.66
	19	0.004	-4.21627E-002	-1.19135E-005	0.00000E+000	-4.22500E-002	1.11522E-003	7	...........	-327.66
	20	0.0042	-5.20752E-002	-1.23040E-005	0.00000E+000	-5.22500E-002	1.01522E-003	7	...........	-327.66
	21	0.0044	-6.20627E-002	-1.26916E-005	0.00000E+000	-6.22500E-002	1.16522E-003	7	...........	-327.66
	22	0.0046	-7.21377E-002	-1.30729E-005	0.00000E+000	-7.22500E-002	1.14022E-003	7	...........	-327.66
	23	0.0048	-8.21002E-002	-1.34439E-005	0.00000E+000	-8.22500E-002	1.14022E-003	7	...........	-327.66
	24	0.005	-9.21002E-002	-1.38142E-005	0.00000E+000	-9.22500E-002	1.04022E-003	7	...........	-327.66
	25	0.0052	-1.02163E-001	-1.41820E-005	0.00000E+000	-1.02250E-001	1.04022E-003	7	...........	-327.66
	26	0.0054	-1.12063E-001	-1.45466E-005	0.00000E+000	-1.12250E-001	1.01522E-003	7	...........	-327.66
	27	0.0056	-1.22100E-001	-1.49036E-005	0.00000E+000	-1.22250E-001	1.06522E-003	7	...........	-327.66
	28	0.0058	-1.32038E-001	-1.52622E-005	0.00000E+000	-1.32250E-001	1.24022E-003	7	...........	-327.66
	29	0.006	-1.42138E-001	-1.56162E-005	0.00000E+000	-1.42250E-001	1.06522E-003	7	...........	-327.66
	30	0.0062	-1.52113E-001	-1.59693E-005	0.00000E+000	-1.52250E-001	9.40224E-004	7	...........	-327.66
	31	0.0064	-1.62063E-001	-1.63208E-005	0.00000E+000	-1.62250E-001	1.21522E-003	7	...........	-327.66
	32	0.0066	-1.72025E-001	-1.66709E-005	0.00000E+000	-1.72250E-001	1.21522E-003	7	...........	-327.66
	33	0.0068	-1.82125E-001	-1.70174E-005	0.00000E+000	-1.82250E-001	1.14022E-003	7	...........	-327.66
	34	0.007	-1.92075E-001	-1.73637E-005	0.00000E+000	-1.92250E-001	1.19022E-003	7	...........	-327.66
	35	0.0072	-2.02100E-001	-1.77078E-005	0.00000E+000	-2.02250E-001	1.14022E-003	7	...........	-327.66
	36	0.0074	-2.12063E-001	-1.80491E-005	0.00000E+000	-2.12250E-001	1.16522E-003	7	...........	-327.66
	37	0.0076	-2.22038E-001	-1.83921E-005	0.00000E+000	-2.22250E-001	1.04022E-003	7	...........	-327.66
	38	0.0078	-2.32025E-001	-1.87321E-005	0.00000E+000	-2.32250E-001	1.16522E-003	7	...........	-327.66
	39	0.008	-2.41963E-001	-1.90742E-005	0.00000E+000	-2.42250E-001	1.29022E-003	7	...........	-327.66
	40	0.0082	-2.52063E-001	-1.94147E-005	0.00000E+000	-2.52250E-001	1.16522E-003	7	...........	-327.66
	41	0.0084	-2.62013E-001	-1.97528E-005	0.00000E+000	-2.62250E-001	1.01522E-003	7	...........	-327.66
	42	0.0086	-2.72075E-001	-2.00911E-005	0.00000E+000	-2.72250E-001	9.90224E-004	7	...........	-327.66
	43	0.0088	-2.82063E-001	-2.04286E-005	0.00000E+000	-2.82250E-001	1.04022E-003	7	...........	-327.66
	44	0.009	-2.91975E-001	-2.07667E-005	0.00000E+000	-2.92250E-001	9.40224E-004	7	...........	-327.66
	45	0.0092	-3.02025E-001	-2.11050E-005	0.00000E+000	-3.02250E-001	9.65224E-004	7	...........	-327.66
	46	0.0094	-3.12000E-001	-2.14410E-005	0.00000E+000	-3.12250E-001	9.65224E-004	7	...........	-327.66
	47	0.0096	-3.22088E-001	-2.17781E-005	0.00000E+000	-3.22250E-001	9.65224E-004	7	...........	-327.66
	48	0.0098	-3.32063E-001	-2.21096E-005	0.00000E+000	-3.32250E-001	1.14022E-003	7	...........	-327.66
	49	0.01	-3.42013E-001	-2.24437E-005	0.00000E+000	-3.42250E-001	9.65224E-004	7	...........	-327.66
	50	0.0102	-3.52100E-001	-2.27737E-005	0.00000E+000	-3.52250E-001	1.01522E-003	7	...........	-327.66
	51	0.0104	-3.62088E-001	-2.31072E-005	0.00000E+000	-3.62250E-001	1.06522E-003	7	...........	-327.66
	52	0.0106	-3.71988E-001	-2.34358E-005	0.00000E+000	-3.72250E-001	1.09022E-003	7	...........	-327.66
	53	0.0108	-3.82113E-001	-2.37693E-005	0.00000E+000	-3.82250E-001	1.04022E-003	7	...........	-327.66
	54	0.011	-3.92063E-001	-2.40974E-005	0.00000E+000	-3.92250E-001	9.65224E-004	7	...........	-327.66
	55	0.0112	-4.02050E-001	-2.44267E-005	0.00000E+000	-4.02250E-001	1.14022E-003	7	...........	-327.66
	56	0.0114	-4.12038E-001	-2.47582E-005	0.00000E+000	-4.12250E-001	1.14022E-003	7	...........	-327.66
	57	0.0116	-4.21888E-001	-2.50853E-005	0.00000E+000	-4.22250E-001	1.06522E-003	7	...........	-327.66
	58	0.0118	-4.32088E-001	-2.54068E-005	0.00000E+000	-4.32250E-001	1.06522E-003	7	...........	-327.66
	59	0.012	-4.42063E-001	-2.57319E-005	0.00000E+000	-4.42250E-001	9.15224E-004	7	...........	-327.66
	60	0.0122	-4.51975E-001	-2.60556E-005	0.00000E+000	-4.52250E-001	8.90224E-004	7	...........	-327.66
	61	0.0124	-4.62050E-001	-2.63709E-005	0.00000E+000	-4.62250E-001	1.06522E-003	7	...........	-327.66
	62	0.0126	-4.72038E-001	-2.66912E-005	0.00000E+000	-4.72250E-001	1.01522E-003	7	...........	-327.66
	63	0.0128	-4.82050E-001	-2.70130E-005	0.00000E+000	-4.82250E-001	1.11522E-003	7	...........	-327.66
	64	0.013	-4.92038E-001	-2.73288E-005	0.00000E+000	-4.92250E-001	1.09022E-003	7	...........	-327.66
	65	0.0132	-5.01975E-001	-2.76389E-005	0.00000E+000	-5.02250E-001	9.65224E-004	7	...........	-327.66
	66	0.0134	-5.12063E-001	-2.79574E-005	0.00000E+000	-5.12250E-001	9.90224E-004	7	...........	-327.66
	67	0.0136	-5.22013E-001	-2.82647E-005	0.00000E+000	-5.22250E-001	1.09022E-003	7	...........	-327.66
	68	0.0138	-5.32000E-001	-2.85800E-005	0.00000E+000	-5.32250E-001	1.01522E-003	7	...........	-327.66
	69	0.014	-5.41988E-001	-2.88833E-005	0.00000E+000	-5.42250E-001	1.04022E-003	7	...........	-327.66
	70	0.0142	-5.51900E-001	-2.91868E-005	0.00000E+000	-5.52250E-001	1.21522E-003	7	...........	-327.66
	71	0.0144	-5.61950E-001	-2.94864E-005	0.00000E+000	-5.62250E-001	1.11522E-003	7	...........	-327.66
	72	0.0146	-5.72038E-001	-2.97817E-005	0.00000E+000	-5.72250E-001	9.90224E-004	7	...........	-327.66
	73	0.0148	-5.81900E-001	-3.00789E-005	0.00000E+000	-5.82250E-001	1.11522E-003	7	...........	-327.66
	74	0.015	-5.92063E-001	-3.03677E-005	0.00000E+000	-5.92250E-001	1.01522E-003	7	...........	-327.66
	75	0.0152	-6.01938E-001	-3.06565E-005	0.00000E+000	-6.02250E-001	1.16522E-003	7	...........	-327.66
	76	0.0154	-6.12013E-001	-3.09386E-005	0.00000E+000	-6.12250E-001	1.04022E-003	7	...........	-327.66
	77	0.0156	-6.21963E-001	-3.12184E-005	0.00000E+000	-6.22250E-001	1.24022E-003	7	...........	-327.66
	78	0.0158	-6.31988E-001	-3.14894E-005	0.00000E+000	-6.32250E-001	1.11522E-003	7	...........	-327.66
	79	0.016	-6.41963E-001	-3.17594E-005	0.00000E+000	-6.42250E-001	1.29022E-003	7	...........	-327.66
	80	0.0162	-6.51988E-001	-3.20252E-005	0.00000E+000	-6.52250E-001	1.14022E-003	7	...........	-327.66
	81	0.0164	-6.62038E-001	-3.22852E-005	0.00000E+000	-6.62250E-001	1.09022E-003	7	...........	-327.66
	82	0.0166	-6.71988E-001	-3.25373E-005	0.00000E+000	-6.72250E-001	1.29022E-003	7	...........	-327.66
	83	0.0168	-6.81863E-001	-3.27873E-005	0.00000E+000	-6.82250E-001	1.11522E-003	7	...........	-327.66
	84	0.017	-6.91975E-001	-3.30263E-005	0.00000E+000	-6.92250E-001	1.24022E-003	7	...........	-327.66
	85	0.0172	-7.01713E-001	-3.32576E-005	0.00000E+000	-7.02250E-001	1.29022E-003	7	...........	-327.66
	86	0.0174	-7.12025E-001	-3.34817E-005	0.00000E+000	-7.12250E-001	1.21522E-003	7	...........	-327.66
	87	0.0176	-7.21900E-001	-3.36987E-005	0.00000E+000	-7.22250E-001	1.14022E-003	7	...........	-327.66
	88	0.0178	-7.31900E-001	-3.39065E-005	0.00000E+000	-7.32250E-001	1.11522E-003	7	...........	-327.66
	89	0.018	-7.41963E-001	-3.41065E-005	0.00000E+000	-7.42250E-001	1.11522E-003	7	...........	-327.66
	90	0.0182	-7.52013E-001	-3.42923E-005	0.00000E+000	-7.52250E-001	1.14022E-003	7	...........	-327.66
	91	0.0184	-7.61900E-001	-3.44638E-005	0.00000E+000	-7.62250E-001	1.11522E-003	7	...........	-327.66
	92	0.0186	-7.72050E-001	-3.46303E-005	0.00000E+000	-7.72250E-001	1.04022E-003	7	...........	-327.66
	93	0.0188	-7.81913E-001	-3.47811E-005	0.00000E+000	-7.82250E-001	9.65224E-004	7	...........	-327.66
	94	0.019	-7.92063E-001	-3.49176E-005	0.00000E+000	-7.92250E-001	1.09022E-003	7	...........	-327.66
	95	0.0192	-8.02013E-001	-3.50356E-005	0.00000E+000	-8.02250E-001	9.65224E-004	7	...........	-327.66
	96	0.0194	-8.11963E-001	-3.51424E-005	0.00000E+000	-8.12250E-001	1.04022E-003	7	...........	-327.66
	97	0.0196	-8.21938E-001	-3.52284E-005	0.00000E+000	-8.22250E-001	1.14022E-003	7	...........	-327.66
	98	0.0198	-8.32013E-001	-3.52999E-005	0.00000E+000	-8.32250E-001	1.19022E-003	7	...........	-327.66
	99	0.02	-8.41963E-001	-3.53507E-005	0.00000E+000	-8.42250E-001	1.19022E-003	7	...........	-327.66
	100	0.0202	-8.51988E-001	-3.53799E-005	0.00000E+000	-8.52250E-001	1.11522E-003	7	...........	-327.66
	101	0.0204	-8.61863E-001	-3.53854E-005	0.00000E+000	-8.62250E-001	1.29022E-003	7	...........	-327.66
	102	0.0206	-8.71988E-001	-3.53754E-005	0.00000E+000	-8.72250E-001	1.11522E-003	7	...........	-327.66
	103	0.0208	-8.81788E-001	-3.53427E-005	0.00000E+000	-8.82250E-001	1.11522E-003	7	...........	-327.66
	104	0.021	-8.91913E-001	-3.52812E-005	0.00000E+000	-8.92250E-001	1.16522E-003	7	...........	-327.66
	105	0.0212	-9.01888E-001	-3.51941E-005	0.00000E+000	-9.02250E-001	1.01522E-003	7	...........	-327.66
	106	0.0214	-8.92013E-001	-3.30318E-005	0.00000E+000	-8.92250E-001	1.06522E-003	7	...........	-327.66
	107	0.0216	-8.81875E-001	-3.09886E-005	0.00000E+000	-8.82250E-001	1.11522E-003	7	...........	-327.66
	108	0.0218	-8.72000E-001	-2.92531E-005	0.00000E+000	-8.72250E-001	1.19022E-003	7	...........	-327.66
	109	0.022	-8.61975E-001	-2.77044E-005	0.00000E+000	-8.62250E-001	1.11522E-003	7	...........	-327.66
	110	0.0222	-8.52063E-001	-2.62962E-005	0.00000E+000	-8.52250E-001	1.19022E-003	7	...........	-327.66
	111	0.0224	-8.41963E-001	-2.49800E-005	0.00000E+000	-8.42250E-001	1.11522E-003	7	...........	-327.66
	112	0.0226	-8.32025E-001	-2.37291E-005	0.00000E+000	-8.32250E-001	1.01522E-003	7	...........	-327.66
	113	0.0228	-8.22013E-001	-2.25407E-005	0.00000E+000	-8.22250E-001	1.16522E-003	7	...........	-327.66
	114	0.023	-8.11925E-001	-2.13955E-005	0.00000E+000	-8.12250E-001	1.11522E-003	7	...........	-327.66
	115	0.0232	-8.01963E-001	-2.02829E-005	0.00000E+000	-8.02250E-001	1.21522E-003	7	...........	-327.66
	116	0.0234	-7.91963E-001	-1.92015E-005	0.00000E+000	-7.92250E-001	1.11522E-003	7	...........	-327.66
	117	0.0236	-7.82013E-001	-1.81501E-005	0.00000E+000	-7.82250E-001	1.11522E-003	7	...........	-327.66
	118	0.0238	-7.72063E-001	-1.71197E-005	0.00000E+000	-7.72250E-001	1.09022E-003	7	...........	-327.66
	119	0.024	-7.62088E-001	-1.61065E-005	0.00000E+000	-7.62250E-001	1.09022E-003	7	...........	-327.66
	120	0.0242	-7.52038E-001	-1.51142E-005	0.00000E+000	-7.52250E-001	1.04022E-003	7	...........	-327.66
	121	0.0244	-7.42000E-001	-1.41370E-005	0.00000E+000	-7.42250E-001	1.24022E-003	7	...........	-327.66
	122	0.0246	-7.32000E-001	-1.31779E-005	0.00000E+000	-7.32250E-001	1.19022E-003	7	...........	-327.66
	123	0.0248	-7.22113E-001	-1.22303E-005	0.00000E+000	-7.22250E-001	1.04022E-003	7	...........	-327.66
	124	0.025	-7.12075E-001	-1.12981E-005	0.00000E+000	-7.12250E-001	1.14022E-003	7	...........	-327.66
	125	0.0252	-7.01950E-001	-1.03790E-005	0.00000E+000	-7.02250E-001	1.24022E-003	7	...........	-327.66
	126	0.0254	-6.92050E-001	-9.47464E-006	0.00000E+000	-6.92250E-001	1.11522E-003	7	...........	-327.66
	127	0.0256	-6.82063E-001	-8.58302E-006	0.00000E+000	-6.82250E-001	1.16522E-003	7	...........	-327.66
	128	0.0258	-6.72063E-001	-7.70615E-006	0.00000E+000	-6.72250E-001	1.06522E-003	7	...........	-327.66
	129	0.026	-6.62063E-001	-6.84278E-006	0.00000E+000	-6.62250E-001	1.11522E-003	7	...........	-327.66
	130	0.0262	-6.51975E-001	-5.99091E-006	0.00000E+000	-6.52250E-001	1.19022E-003	7	...........	-327.66
	131	0.0264	-6.42038E-001	-5.15305E-006	0.00000E+000	-6.42250E-001	1.21522E-003	7	...........	-327.66
	132	0.0266	-6.32050E-001	-4.32519E-006	0.00000E+000	-6.32250E-001	1.21522E-003	7	...........	-327.66
	133	0.0268	-6.22088E-001	-3.51057E-006	0.00000E+000	-6.22250E-001	1.21522E-003	7	...........	-327.66
	134	0.027	-6.12038E-001	-2.70847E-006	0.00000E+000	-6.12250E-001	1.29022E-003	7	...........	-327.66
	135	0.0272	-6.02063E-001	-1.91561E-006	0.00000E+000	-6.02250E-001	1.09022E-003	7	...........	-327.66
	136	0.0274	-5.92088E-001	-1.13950E-006	0.00000E+000	-5.92250E-001	9.90224E-004	7	...........	-327.66
	137	0.0276	-5.82138E-001	-3.77898E-007	0.00000E+000	-5.82250E-001	1.09022E-003	7	...........	-327.66
	138	0.0278	-5.72113E-001	3.80206E-007	0.00000E+000	-5.72250E-001	1.01522E-003	7	...........	-327.66
	139	0.028	-5.62175E-001	1.12181E-006	0.00000E+000	-5.62250E-001	1.11522E-003	7	...........	-327.66
	140	0.0282	-5.52125E-001	1.85591E-006	0.00000E+000	-5.52250E-001	1.06522E-003	7	...........	-327.66
	141	0.0284	-5.42150E-001	2.57601E-006	0.00000E+000	-5.42250E-001	1.14022E-003	7	...........	-327.66
	142	0.0286	-5.32063E-001	3.28585E-006	0.00000E+000	-5.32250E-001	9.90224E-004	7	...........	-327.66
	143	0.0288	-5.22150E-001	3.98845E-006	0.00000E+000	-5.22250E-001	1.01522E-003	7	...........	-327.66
	144	0.029	-5.12113E-001	4.68529E-006	0.00000E+000	-5.12250E-001	1.21522E-003	7	...........	-327.66
	145	0.0292	-5.02113E-001	5.36113E-006	0.00000E+000	-5.02250E-001	1.06522E-003	7	...........	-327.66
	146	0.0294	-4.92063E-001	6.03498E-006	0.00000E+000	-4.92250E-001	1.04022E-003	7	...........	-327.66
	147	0.0296	-4.82200E-001	6.69782E-006	0.00000E+000	-4.82250E-001	1.06522E-003	7	...........	-327.66
	148	0.0298	-4.72063E-001	7.35141E-006	0.00000E+000	-4.72250E-001	1.16522E-003	7	...........	-327.66
	149	0.03	-4.62188E-001	8.00199E-006	0.00000E+000	-4.62250E-001	1.21522E-003	7	...........	-327.66
	150	0.0302	-4.52050E-001	8.64258E-006	0.00000E+000	-4.52250E-001	1.01522E-003	7	...........	-327.66
	151	0.0304	-4.42163E-001	9.26992E-006	0.00000E+000	-4.42250E-001	1.01522E-003	7	...........	-327.66
	152	0.0306	-4.32188E-001	9.89150E-006	0.00000E+000	-4.32250E-001	1.04022E-003	7	...........	-327.66
	153	0.0308	-4.22163E-001	1.05018E-005	0.00000E+000	-4.22250E-001	1.16522E-003	7	...........	-327.66
	154	0.031	-4.12225E-001	1.11077E-005	0.00000E+000	-4.12250E-001	1.11522E-003	7	...........	-327.66
	155	0.0312	-4.02075E-001	1.17030E-005	0.00000E+000	-4.02250E-001	1.16522E-003	7	...........	-327.66
	156	0.0314	-3.92138E-001	1.22903E-005	0.00000E+000	-3.92250E-001	1.21522E-003	7	...........	-327.66
	157	0.0316	-3.82163E-001	1.28702E-005	0.00000E+000	-3.82250E-001	9.65224E-004	7	...........	-327.66
	158	0.0318	-3.72150E-001	1.34347E-005	0.00000E+000	-3.72250E-001	9.90224E-004	7	...........	-327.66
	159	0.032	-3.62288E-001	1.39936E-005	0.00000E+000	-3.62250E-001	1.09022E-003	7	...........	-327.66
	160	0.0322	-3.52238E-001	1.45406E-005	0.00000E+000	-3.52250E-001	1.11522E-003	7	...........	-327.66
	161	0.0324	-3.42250E-001	1.50762E-005	0.00000E+000	-3.42250E-001	1.04022E-003	7	...........	-327.66
	162	0.0326	-3.32100E-001	1.56118E-005	0.00000E+000	-3.32250E-001	1.14022E-003	7	...........	-327.66
	163	0.0328	-3.22213E-001	1.61261E-005	0.00000E+000	-3.22250E-001	1.16522E-003	7	...........	-327.66
	164	0.033	-3.12238E-001	1.66382E-005	0.00000E+000	-3.12250E-001	1.01522E-003	7	...........	-327.66
	165	0.0332	-3.02338E-001	1.71337E-005	0.00000E+000	-3.02250E-001	1.16522E-003	7	...........	-327.66
	166	0.0334	-2.92213E-001	1.76248E-005	0.00000E+000	-2.92250E-001	1.01522E-003	7	...........	-327.66
	167	0.0336	-2.82125E-001	1.81069E-005	0.00000E+000	-2.82250E-001	1.09022E-003	7	...........	-327.66
	168	0.0338	-2.72163E-001	1.85742E-005	0.00000E+000	-2.72250E-001	1.19022E-003	7	...........	-327.66
	169	0.034	-2.62250E-001	1.90247E-005	0.00000E+000	-2.62250E-001	1.11522E-003	7	...........	-327.66
	170	0.0342	-2.52213E-001	1.94758E-005	0.00000E+000	-2.52250E-001	1.09022E-003	7	...........	-327.66
	171	0.0344	-2.42138E-001	1.99124E-005	0.00000E+000	-2.42250E-001	1.06522E-003	7	...........	-327.66
	172	0.0346	-2.32188E-001	2.03329E-005	0.00000E+000	-2.32250E-001	1.19022E-003	7	...........	-327.66
	173	0.0348	-2.22188E-001	2.07502E-005	0.00000E+000	-2.22250E-001	1.11522E-003	7	...........	-327.66
	174	0.035	-2.12113E-001	2.11565E-005	0.00000E+000	-2.12250E-001	1.14022E-003	7	...........	-327.66
	175	0.0352	-2.02313E-001	2.15536E-005	0.00000E+000	-2.02250E-001	1.11522E-003	7	...........	-327.66
	176	0.0354	-1.92150E-001	2.19316E-005	0.00000E+000	-1.92250E-001	1.14022E-003	7	...........	-327.66
	177	0.0356	-1.82250E-001	2.22989E-005	0.00000E+000	-1.82250E-001	1.19022E-003	7	...........	-327.66
	178	0.0358	-1.72188E-001	2.26550E-005	0.00000E+000	-1.72250E-001	1.19022E-003	7	...........	-327.66
	179	0.036	-1.62375E-001	2.30010E-005	0.00000E+000	-1.62250E-001	1.11522E-003	7	...........	-327.66
	180	0.0362	-1.52313E-001	2.33411E-005	0.00000E+000	-1.52250E-001	1.06522E-003	7	...........	-327.66
	181	0.0364	-1.42200E-001	2.36654E-005	0.00000E+000	-1.42250E-001	9.65224E-004	7	...........	-327.66
	182	0.0366	-1.32300E-001	2.39879E-005	0.00000E+000	-1.32250E-001	1.04022E-003	7	...........	-327.66
	183	0.0368	-1.22263E-001	2.42955E-005	0.00000E+000	-1.22250E-001	1.09022E-003	7	...........	-327.66
	184	0.037	-1.12225E-001	2.45915E-005	0.00000E+000	-1.12250E-001	1.19022E-003	7	...........	-327.66
	185	0.0372	-1.02363E-001	2.48825E-005	0.00000E+000	-1.02250E-001	1.01522E-003	7	...........	-327.66
	186	0.0374	-9.21627E-002	2.51536E-005	0.00000E+000	-9.22500E-002	9.90224E-004	7	...........	-327.66
	187	0.0376	-8.23377E-002	2.54209E-005	0.00000E+000	-8.22500E-002	9.65224E-004	7	...........	-327.66
	188	0.0378	-7.21627E-002	2.56809E-005	0.00000E+000	-7.22500E-002	1.11522E-003	7	...........	-327.66
	189	0.038	-6.22502E-002	2.59279E-005	0.00000E+000	-6.22500E-002	1.16522E-003	7	...........	-327.66
	190	0.0382	-5.23127E-002	2.61707E-005	0.00000E+000	-5.22500E-002	9.90224E-004	7	...........	-327.66
	191	0.0384	-4.22627E-002	2.64018E-005	0.00000E+000	-4.22500E-002	1.14022E-003	7	...........	-327.66
	192	0.0386	-3.21377E-002	2.66265E-005	0.00000E+000	-3.22500E-002	1.11522E-003	7	...........	-327.66
	193	0.0388	-2.23127E-002	2.68451E-005	0.00000E+000	-2.22500E-002	1.04022E-003	7	...........	-327.66
	194	0.039	-1.22752E-002	2.70541E-005	0.00000E+000	-1.22500E-002	1.09022E-003	7	...........	-327.66
	195	0.0392	-2.28769E-003	2.72571E-005	0.00000E+000	-2.25002E-003	1.09022E-003	7	...........	-327.66
	196	0.0394	7.79981E-003	2.74541E-005	0.00000E+000	7.74999E-003	1.11522E-003	7	...........	-327.66
	197	0.0396	1.78123E-002	2.76414E-005	0.00000E+000	1.77500E-002	1.29022E-003	7	...........	-327.66
	198	0.0398	2.78123E-002	2.78237E-005	0.00000E+000	2.77500E-002	1.16522E-003	7	...........	-327.66
	199	0.04	3.77873E-002	2.79962E-005	0.00000E+000	3.77500E-002	1.14022E-003	7	...........	-327.66
	200	0.0402	4.77998E-002	2.81657E-005	0.00000E+000	4.77500E-002	1.24022E-003	7	...........	-327.66
	201	0.0404	5.76498E-002	2.83193E-005	0.00000E+000	5.77500E-002	1.21522E-003	7	...........	-327.66
	202	0.0406	6.78123E-002	2.84713E-005	0.00000E+000	6.77500E-002	1.19022E-003	7	...........	-327.66
	203	0.0408	7.77248E-002	2.86208E-005	0.00000E+000	7.77500E-002	1.09022E-003	7	...........	-327.66
	204	0.041	8.77623E-002	2.87556E-005	0.00000E+000	8.77500E-002	1.14022E-003	7	...........	-327.66
	205	0.0412	9.76748E-002	2.88796E-005	0.00000E+000	9.77500E-002	1.11522E-003	7	...........	-327.66
	206	0.0414	1.07775E-001	2.89996E-005	0.00000E+000	1.07750E-001	1.09022E-003	7	...........	-327.66
	207	0.0416	1.17637E-001	2.91099E-005	0.00000E+000	1.17750E-001	1.14022E-003	7	...........	-327.66
	208	0.0418	1.27787E-001	2.92134E-005	0.00000E+000	1.27750E-001	1.14022E-003	7	...........	-327.66
	209	0.042	1.37687E-001	2.93041E-005	0.00000E+000	1.37750E-001	1.04022E-003	7	...........	-327.66
	210	0.0422	1.47775E-001	2.93849E-005	0.00000E+000	1.47750E-001	1.19022E-003	7	...........	-327.66
	211	0.0424	1.57712E-001	2.94642E-005	0.00000E+000	1.57750E-001	1.09022E-003	7	...........	-327.66
	212	0.0426	1.67812E-001	2.95249E-005	0.00000E+000	1.67750E-001	1.11522E-003	7	...........	-327.66
	213	0.0428	1.77737E-001	2.95809E-005	0.00000E+000	1.77750E-001	9.90224E-004	7	...........	-327.66
	214	0.043	1.87762E-001	2.96252E-005	0.00000E+000	1.87750E-001	1.06522E-003	7	...........	-327.66
	215	0.0432	1.97712E-001	2.96602E-005	0.00000E+000	1.97750E-001	1.09022E-003	7	...........	-327.66
	216	0.0434	2.07712E-001	2.96927E-005	0.00000E+000	2.07750E-001	1.04022E-003	7	...........	-327.66
	217	0.0436	2.17737E-001	2.97175E-005	0.00000E+000	2.17750E-001	1.11522E-003	7	...........	-327.66
	218	0.0438	2.27750E-001	2.97292E-005	0.00000E+000	2.27750E-001	1.11522E-003	7	...........	-327.66
	219	0.044	2.37662E-001	2.97385E-005	0.00000E+000	2.37750E-001	1.14022E-003	7	...........	-327.66
	220	0.0442	2.47812E-001	2.97420E-005	0.00000E+000	2.47750E-001	1.14022E-003	7	...........	-327.66
	221	0.0444	2.57762E-001	2.97405E-005	0.00000E+000	2.57750E-001	1.29022E-003	7	...........	-327.66
	222	0.0446	2.67737E-001	2.97335E-005	0.00000E+000	2.67750E-001	1.14022E-003	7	...........	-327.66
	223	0.0448	2.77712E-001	2.97205E-005	0.00000E+000	2.77750E-001	1.11522E-003	7	...........	-327.66
	224	0.045	2.87637E-001	2.97042E-005	0.00000E+000	2.87750E-001	1.04022E-003	7	...........	-327.66
	225	0.0452	2.97637E-001	2.96907E-005	0.00000E+000	2.97750E-001	1.06522E-003	7	...........	-327.66
	226	0.0454	3.07787E-001	2.96669E-005	0.00000E+000	3.07750E-001	1.04022E-003	7	...........	-327.66
	227	0.0456	3.17700E-001	2.96399E-005	0.00000E+000	3.17750E-001	1.19022E-003	7	...........	-327.66
	228	0.0458	3.27787E-001	2.96094E-005	0.00000E+000	3.27750E-001	1.24022E-003	7	...........	-327.66
	229	0.046	3.37662E-001	2.95789E-005	0.00000E+000	3.37750E-001	9.90224E-004	7	...........	-327.66
	230	0.0462	3.47887E-001	2.95489E-005	0.00000E+000	3.47750E-001	1.14022E-003	7	...........	-327.66
	231	0.0464	3.57687E-001	2.95122E-005	0.00000E+000	3.57750E-001	1.14022E-003	7	...........	-327.66
	232	0.0466	3.67762E-001	2.94769E-005	0.00000E+000	3.67750E-001	1.09022E-003	7	...........	-327.66
	233	0.0468	3.77550E-001	2.94349E-005	0.00000E+000	3.77750E-001	1.01522E-003	7	...........	-327.66
	234	0.047	3.87862E-001	2.93979E-005	0.00000E+000	3.87750E-001	9.90224E-004	7	...........	-327.66
	235	0.0472	3.97675E-001	2.93559E-005	0.00000E+000	3.97750E-001	1.09022E-003	7	...........	-327.66
	236	0.0474	4.07762E-001	2.93149E-005	0.00000E+000	4.07750E-001	1.06522E-003	7	...........	-327.66
	237	0.0476	4.17612E-001	2.92721E-005	0.00000E+000	4.17750E-001	1.04022E-003	7	...........	-327.66
	238	0.0478	4.27662E-001	2.92266E-005	0.00000E+000	4.27750E-001	1.01522E-003	7	...........	-327.66
	239	0.048	4.37712E-001	2.91859E-005	0.00000E+000	4.37750E-001	1.14022E-003	7	...........	-327.66
	240	0.0482	4.47750E-001	2.91414E-005	0.00000E+000	4.47750E-001	1.01522E-003	7	...........	-327.66
	241	0.0484	4.57600E-001	2.90966E-005	0.00000E+000	4.57750E-001	1.19022E-003	7	...........	-327.66
	242	0.0486	4.67575E-001	2.90541E-005	0.00000E+000	4.67750E-001	1.16522E-003	7	...........	-327.66
	243	0.0488	4.77712E-001	2.90154E-005	0.00000E+000	4.77750E-001	1.19022E-003	7	...........	-327.66
	244	0.049	4.87762E-001	2.89776E-005	0.00000E+000	4.87750E-001	1.04022E-003	7	...........	-327.66
	245	0.0492	4.97650E-001	2.89356E-005	0.00000E+000	4.97750E-001	1.09022E-003	7	...........	-327.66
	246	0.0494	5.07750E-001	2.88988E-005	0.00000E+000	5.07750E-001	1.06522E-003	7	...........	-327.66
	247	0.0496	5.17587E-001	2.88613E-005	0.00000E+000	5.17750E-001	1.11522E-003	7	...........	-327.66
	248	0.0498	5.27875E-001	2.88306E-005	0.00000E+000	5.27750E-001	1.24022E-003	7	...........	-327.66
	249	0.05	5.37587E-001	2.87988E-005	0.00000E+000	5.37750E-001	1.09022E-003	7	...........	-327.66
	250	0.0502	5.47725E-001	2.87706E-005	0.00000E+000	5.47750E-001	1.21522E-003	7	...........	-327.66
	251	0.0504	5.57725E-001	2.87466E-005	0.00000E+000	5.57750E-001	1.21522E-003	7	...........	-327.66
	252	0.0506	5.67712E-001	2.87223E-005	0.00000E+000	5.67750E-001	1.16522E-003	7	...........	-327.66
	253	0.0508	5.77650E-001	2.87026E-005	0.00000E+000	5.77750E-001	1.06522E-003	7	...........	-327.66
	254	0.051	5.87712E-001	2.86861E-005	0.00000E+000	5.87750E-001	1.01522E-003	7	...........	-327.66
	255	0.0512	5.97650E-001	2.86716E-005	0.00000E+000	5.97750E-001	1.19022E-003	7	...........	-327.66
CURVE2	TABLE
	Pt	T	Vf	Im	Vu	Sig	Ach	IERange	Over	Temp
	#	s	V vs. Ref.	A	V	V	V	#	bits	deg C
	256	0.0514	5.90012E-001	2.63973E-005	0.00000E+000	5.90000E-001	1.11522E-003	7	...........	-327.66
	257	0.0516	5.79937E-001	2.40217E-005	0.00000E+000	5.80000E-001	1.14022E-003	7	...........	-327.66
	258	0.0518	5.70000E-001	2.20312E-005	0.00000E+000	5.70000E-001	1.21522E-003	7	...........	-327.66
	259	0.052	5.59887E-001	2.03214E-005	0.00000E+000	5.60000E-001	1.19022E-003	7	...........	-327.66
	260	0.0522	5.49937E-001	1.88120E-005	0.00000E+000	5.50000E-001	1.09022E-003	7	...........	-327.66
	261	0.0524	5.39950E-001	1.74500E-005	0.00000E+000	5.40000E-001	1.16522E-003	7	...........	-327.66
	262	0.0526	5.30037E-001	1.61954E-005	0.00000E+000	5.30000E-001	1.11522E-003	7	...........	-327.66
	263	0.0528	5.19987E-001	1.50417E-005	0.00000E+000	5.20000E-001	1.24022E-003	7	...........	-327.66
	264	0.053	5.09887E-001	1.39551E-005	0.00000E+000	5.10000E-001	1.04022E-003	7	...........	-327.66
	265	0.0532	4.99950E-001	1.29339E-005	0.00000E+000	5.00000E-001	1.11522E-003	7	...........	-327.66
	266	0.0534	4.90087E-001	1.19688E-005	0.00000E+000	4.90000E-001	1.06522E-003	7	...........	-327.66
	267	0.0536	4.80012E-001	1.10492E-005	0.00000E+000	4.80000E-001	1.21522E-003	7	...........	-327.66
	268	0.0538	4.69925E-001	1.01695E-005	0.00000E+000	4.70000E-001	9.40224E-004	7	...........	-327.66
	269	0.054	4.59987E-001	9.33118E-006	0.00000E+000	4.60000E-001	1.14022E-003	7	...........	-327.66
	270	0.0542	4.50125E-001	8.52582E-006	0.00000E+000	4.50000E-001	1.01522E-003	7	...........	-327.66
	271	0.0544	4.39937E-001	7.74346E-006	0.00000E+000	4.40000E-001	1.11522E-003	7	...........	-327.66
	272	0.0546	4.30062E-001	7.00011E-006	0.00000E+000	4.30000E-001	9.65224E-004	7	...........	-327.66
	273	0.0548	4.20012E-001	6.27376E-006	0.00000E+000	4.20000E-001	1.19022E-003	7	...........	-327.66
	274	0.055	4.09975E-001	5.57366E-006	0.00000E+000	4.10000E-001	1.14022E-003	7	...........	-327.66
	275	0.0552	4.00075E-001	4.88957E-006	0.00000E+000	4.00000E-001	9.15224E-004	7	...........	-327.66
	276	0.0554	3.89987E-001	4.22748E-006	0.00000E+000	3.90000E-001	9.40224E-004	7	...........	-327.66
	277	0.0556	3.80012E-001	3.58414E-006	0.00000E+000	3.80000E-001	1.16522E-003	7	...........	-327.66
	278	0.0558	3.70012E-001	2.95656E-006	0.00000E+000	3.70000E-001	1.14022E-003	7	...........	-327.66
	279	0.056	3.59937E-001	2.34622E-006	0.00000E+000	3.60000E-001	1.06522E-003	7	...........	-327.66
	280	0.0562	3.50062E-001	1.75339E-006	0.00000E+000	3.50000E-001	9.40224E-004	7	...........	-327.66
	281	0.0564	3.39962E-001	1.16681E-006	0.00000E+000	3.40000E-001	1.09022E-003	7	...........	-327.66
	282	0.0566	3.30062E-001	6.01986E-007	0.00000E+000	3.30000E-001	1.16522E-003	7	...........	-327.66
	283	0.0568	3.20137E-001	4.79104E-008	0.00000E+000	3.20000E-001	1.04022E-003	7	...........	-327.66
	284	0.057	3.10125E-001	-5.02165E-007	0.00000E+000	3.10000E-001	1.16522E-003	7	...........	-327.66
	285	0.0572	3.00000E-001	-1.03249E-006	0.00000E+000	3.00000E-001	1.24022E-003	7	...........	-327.66
	286	0.0574	2.90037E-001	-1.55531E-006	0.00000E+000	2.90000E-001	9.90224E-004	7	...........	-327.66
	287	0.0576	2.79975E-001	-2.06563E-006	0.00000E+000	2.80000E-001	1.06522E-003	7	...........	-327.66
	288	0.0578	2.70187E-001	-2.56895E-006	0.00000E+000	2.70000E-001	1.04022E-003	7	...........	-327.66
	289	0.058	2.60025E-001	-3.06626E-006	0.00000E+000	2.60000E-001	1.11522E-003	7	...........	-327.66
	290	0.0582	2.50112E-001	-3.54858E-006	0.00000E+000	2.50000E-001	1.16522E-003	7	...........	-327.66
	291	0.0584	2.40100E-001	-4.03140E-006	0.00000E+000	2.40000E-001	1.06522E-003	7	...........	-327.66
	292	0.0586	2.30212E-001	-4.49796E-006	0.00000E+000	2.30000E-001	1.14022E-003	7	...........	-327.66
	293	0.0588	2.19987E-001	-4.96202E-006	0.00000E+000	2.20000E-001	1.16522E-003	7	...........	-327.66
	294	0.059	2.10000E-001	-5.41958E-006	0.00000E+000	2.10000E-001	1.14022E-003	7	...........	-327.66
	295	0.0592	2.00162E-001	-5.86715E-006	0.00000E+000	2.00000E-001	1.09022E-003	7	...........	-327.66
	296	0.0594	1.90100E-001	-6.31396E-006	0.00000E+000	1.90000E-001	1.16522E-003	7	...........	-327.66
	297	0.0596	1.80025E-001	-6.74902E-006	0.00000E+000	1.80000E-001	8.90224E-004	7	...........	-327.66
	298	0.0598	1.70325E-001	-7.17732E-006	0.00000E+000	1.70000E-001	9.90224E-004	7	...........	-327.66
	299	0.06	1.59962E-001	-7.59913E-006	0.00000E+000	1.60000E-001	1.06522E-003	7	...........	-327.66
	300	0.0602	1.50087E-001	-8.02269E-006	0.00000E+000	1.50000E-001	9.90224E-004	7	...........	-327.66
	301	0.0604	1.40187E-001	-8.43975E-006	0.00000E+000	1.40000E-001	1.14022E-003	7	...........	-327.66
	302	0.0606	1.30287E-001	-8.84755E-006	0.00000E+000	1.30000E-001	1.09022E-003	7	...........	-327.66
	303	0.0608	1.20112E-001	-9.25386E-006	0.00000E+000	1.20000E-001	1.09022E-003	7	...........	-327.66
	304	0.061	1.10187E-001	-9.65316E-006	0.00000E+000	1.10000E-001	9.90224E-004	7	...........	-327.66
	305	0.0612	1.00112E-001	-1.00502E-005	0.00000E+000	1.00000E-001	1.11522E-003	7	...........	-327.66
	306	0.0614	9.02873E-002	-1.04423E-005	0.00000E+000	9.00000E-002	1.04022E-003	7	...........	-327.66
	307	0.0616	8.00623E-002	-1.08311E-005	0.00000E+000	8.00000E-002	1.01522E-003	7	...........	-327.66
	308	0.0618	7.01123E-002	-1.12149E-005	0.00000E+000	7.00000E-002	1.16522E-003	7	...........	-327.66
	309	0.062	6.01748E-002	-1.15949E-005	0.00000E+000	6.00000E-002	1.11522E-003	7	...........	-327.66
	310	0.0622	5.02373E-002	-1.19735E-005	0.00000E+000	5.00000E-002	1.14022E-003	7	...........	-327.66
	311	0.0624	4.00623E-002	-1.23488E-005	0.00000E+000	4.00000E-002	1.29022E-003	7	...........	-327.66
	312	0.0626	3.01248E-002	-1.27218E-005	0.00000E+000	3.00000E-002	1.21522E-003	7	...........	-327.66
	313	0.0628	2.01248E-002	-1.30871E-005	0.00000E+000	2.00000E-002	1.14022E-003	7	...........	-327.66
	314	0.063	1.01373E-002	-1.34497E-005	0.00000E+000	9.99999E-003	1.11522E-003	7	...........	-327.66
	315	0.0632	6.23125E-005	-1.38137E-005	0.00000E+000	-1.49012E-008	1.16522E-003	7	...........	-327.66
	316	0.0634	-9.77519E-003	-1.41700E-005	0.00000E+000	-1.00000E-002	1.11522E-003	7	...........	-327.66
	317	0.0636	-1.98502E-002	-1.45288E-005	0.00000E+000	-2.00000E-002	1.16522E-003	7	...........	-327.66
	318	0.0638	-2.98502E-002	-1.48764E-005	0.00000E+000	-3.00000E-002	1.11522E-003	7	...........	-327.66
	319	0.064	-3.98377E-002	-1.52289E-005	0.00000E+000	-4.00000E-002	1.11522E-003	7	...........	-327.66
	320	0.0642	-4.98377E-002	-1.55780E-005	0.00000E+000	-5.00000E-002	1.21522E-003	7	...........	-327.66
	321	0.0644	-5.99752E-002	-1.59235E-005	0.00000E+000	-6.00000E-002	1.04022E-003	7	...........	-327.66
	322	0.0646	-6.98377E-002	-1.62628E-005	0.00000E+000	-7.00000E-002	1.04022E-003	7	...........	-327.66
	323	0.0648	-7.98252E-002	-1.66046E-005	0.00000E+000	-8.00000E-002	9.90224E-004	7	...........	-327.66
	324	0.065	-8.98127E-002	-1.69382E-005	0.00000E+000	-9.00000E-002	1.16522E-003	7	...........	-327.66
	325	0.0652	-9.99127E-002	-1.72742E-005	0.00000E+000	-1.00000E-001	1.19022E-003	7	...........	-327.66
	326	0.0654	-1.09713E-001	-1.76095E-005	0.00000E+000	-1.10000E-001	1.19022E-003	7	...........	-327.66
	327	0.0656	-1.19888E-001	-1.79385E-005	0.00000E+000	-1.20000E-001	9.15224E-004	7	...........	-327.66
	328	0.0658	-1.29788E-001	-1.82661E-005	0.00000E+000	-1.30000E-001	1.01522E-003	7	...........	-327.66
	329	0.066	-1.39938E-001	-1.85914E-005	0.00000E+000	-1.40000E-001	1.06522E-003	7	...........	-327.66
	330	0.0662	-1.49775E-001	-1.89154E-005	0.00000E+000	-1.50000E-001	1.19022E-003	7	...........	-327.66
	331	0.0664	-1.59900E-001	-1.92360E-005	0.00000E+000	-1.60000E-001	1.09022E-003	7	...........	-327.66
	332	0.0666	-1.69813E-001	-1.95543E-005	0.00000E+000	-1.70000E-001	1.16522E-003	7	...........	-327.66
	333	0.0668	-1.79888E-001	-1.98736E-005	0.00000E+000	-1.80000E-001	1.11522E-003	7	...........	-327.66
	334	0.067	-1.89725E-001	-2.01936E-005	0.00000E+000	-1.90000E-001	1.16522E-003	7	...........	-327.66
	335	0.0672	-1.99838E-001	-2.05169E-005	0.00000E+000	-2.00000E-001	1.04022E-003	7	...........	-327.66
	336	0.0674	-2.09700E-001	-2.08309E-005	0.00000E+000	-2.10000E-001	1.21522E-003	7	...........	-327.66
	337	0.0676	-2.19763E-001	-2.11477E-005	0.00000E+000	-2.20000E-001	1.19022E-003	7	...........	-327.66
	338	0.0678	-2.29763E-001	-2.14593E-005	0.00000E+000	-2.30000E-001	1.14022E-003	7	...........	-327.66
	339	0.068	-2.39900E-001	-2.17731E-005	0.00000E+000	-2.40000E-001	1.21522E-003	7	...........	-327.66
	340	0.0682	-2.49775E-001	-2.20899E-005	0.00000E+000	-2.50000E-001	1.21522E-003	7	...........	-327.66
	341	0.0684	-2.59763E-001	-2.23964E-005	0.00000E+000	-2.60000E-001	1.16522E-003	7	...........	-327.66
	342	0.0686	-2.69738E-001	-2.27134E-005	0.00000E+000	-2.70000E-001	1.11522E-003	7	...........	-327.66
	343	0.0688	-2.79888E-001	-2.30232E-005	0.00000E+000	-2.80000E-001	1.11522E-003	7	...........	-327.66
	344	0.069	-2.89688E-001	-2.33278E-005	0.00000E+000	-2.90000E-001	1.26522E-003	7	...........	-327.66
	345	0.0692	-2.99800E-001	-2.36373E-005	0.00000E+000	-3.00000E-001	1.14022E-003	7	...........	-327.66
	346	0.0694	-3.09688E-001	-2.39491E-005	0.00000E+000	-3.10000E-001	1.06522E-003	7	...........	-327.66
	347	0.0696	-3.19775E-001	-2.42527E-005	0.00000E+000	-3.20000E-001	1.04022E-003	7	...........	-327.66
	348	0.0698	-3.29800E-001	-2.45599E-005	0.00000E+000	-3.30000E-001	1.19022E-003	7	...........	-327.66
	349	0.07	-3.39775E-001	-2.48692E-005	0.00000E+000	-3.40000E-001	1.06522E-003	7	...........	-327.66
	350	0.0702	-3.49713E-001	-2.51675E-005	0.00000E+000	-3.50000E-001	1.09022E-003	7	...........	-327.66
	351	0.0704	-3.59813E-001	-2.54731E-005	0.00000E+000	-3.60000E-001	1.01522E-003	7	...........	-327.66
	352	0.0706	-3.69738E-001	-2.57746E-005	0.00000E+000	-3.70000E-001	1.11522E-003	7	...........	-327.66
	353	0.0708	-3.79913E-001	-2.60719E-005	0.00000E+000	-3.80000E-001	9.65224E-004	7	...........	-327.66
	354	0.071	-3.89763E-001	-2.63672E-005	0.00000E+000	-3.90000E-001	1.04022E-003	7	...........	-327.66
	355	0.0712	-3.99838E-001	-2.66687E-005	0.00000E+000	-4.00000E-001	9.90224E-004	7	...........	-327.66
	356	0.0714	-4.09713E-001	-2.69598E-005	0.00000E+000	-4.10000E-001	1.16522E-003	7	...........	-327.66
	357	0.0716	-4.19725E-001	-2.72548E-005	0.00000E+000	-4.20000E-001	1.14022E-003	7	...........	-327.66
	358	0.0718	-4.29775E-001	-2.75434E-005	0.00000E+000	-4.30000E-001	1.09022E-003	7	...........	-327.66
	359	0.072	-4.39713E-001	-2.78321E-005	0.00000E+000	-4.40000E-001	1.04022E-003	7	...........	-327.66
	360	0.0722	-4.49650E-001	-2.81229E-005	0.00000E+000	-4.50000E-001	1.14022E-003	7	...........	-327.66
	361	0.0724	-4.59688E-001	-2.84065E-005	0.00000E+000	-4.60000E-001	1.19022E-003	7	...........	-327.66
	362	0.0726	-4.69713E-001	-2.86878E-005	0.00000E+000	-4.70000E-001	1.16522E-003	7	...........	-327.66
	363	0.0728	-4.79775E-001	-2.89700E-005	0.00000E+000	-4.80000E-001	1.09022E-003	7	...........	-327.66
	364	0.073	-4.89663E-001	-2.92468E-005	0.00000E+000	-4.90000E-001	1.16522E-003	7	...........	-327.66
	365	0.0732	-4.99675E-001	-2.95221E-005	0.00000E+000	-5.00000E-001	1.04022E-003	7	...........	-327.66
	366	0.0734	-5.09725E-001	-2.97927E-005	0.00000E+000	-5.10000E-001	9.90224E-004	7	...........	-327.66
	367	0.0736	-5.19713E-001	-3.00599E-005	0.00000E+000	-5.20000E-001	1.11522E-003	7	...........	-327.66
	368	0.0738	-5.29738E-001	-3.03292E-005	0.00000E+000	-5.30000E-001	1.04022E-003	7	...........	-327.66
	369	0.074	-5.39713E-001	-3.05905E-005	0.00000E+000	-5.40000E-001	1.09022E-003	7	...........	-327.66
	370	0.0742	-5.49613E-001	-3.08538E-005	0.00000E+000	-5.50000E-001	1.14022E-003	7	...........	-327.66
	371	0.0744	-5.59763E-001	-3.11061E-005	0.00000E+000	-5.60000E-001	1.09022E-003	7	...........	-327.66
	372	0.0746	-5.69713E-001	-3.13561E-005	0.00000E+000	-5.70000E-001	1.01522E-003	7	...........	-327.66
	373	0.0748	-5.79713E-001	-3.16052E-005	0.00000E+000	-5.80000E-001	1.06522E-003	7	...........	-327.66
	374	0.075	-5.89650E-001	-3.18494E-005	0.00000E+000	-5.90000E-001	8.90224E-004	7	...........	-327.66
	375	0.0752	-5.99700E-001	-3.20882E-005	0.00000E+000	-6.00000E-001	1.14022E-003	7	...........	-327.66
	376	0.0754	-6.09850E-001	-3.23273E-005	0.00000E+000	-6.10000E-001	1.14022E-003	7	...........	-327.66
	377	0.0756	-6.19663E-001	-3.25535E-005	0.00000E+000	-6.20000E-001	1.04022E-003	7	...........	-327.66
	378	0.0758	-6.29588E-001	-3.27836E-005	0.00000E+000	-6.30000E-001	1.16522E-003	7	...........	-327.66
	379	0.076	-6.39738E-001	-3.30028E-005	0.00000E+000	-6.40000E-001	1.14022E-003	7	...........	-327.66
	380	0.0762	-6.49675E-001	-3.32196E-005	0.00000E+000	-6.50000E-001	1.11522E-003	7	...........	-327.66
	381	0.0764	-6.59650E-001	-3.34294E-005	0.00000E+000	-6.60000E-001	1.16522E-003	7	...........	-327.66
	382	0.0766	-6.69638E-001	-3.36307E-005	0.00000E+000	-6.70000E-001	1.11522E-003	7	...........	-327.66
	383	0.0768	-6.79650E-001	-3.38282E-005	0.00000E+000	-6.80000E-001	1.16522E-003	7	...........	-327.66
	384	0.077	-6.89650E-001	-3.40182E-005	0.00000E+000	-6.90000E-001	1.19022E-003	7	...........	-327.66
	385	0.0772	-6.99563E-001	-3.42013E-005	0.00000E+000	-7.00000E-001	1.11522E-003	7	...........	-327.66
	386	0.0774	-7.09663E-001	-3.43740E-005	0.00000E+000	-7.10000E-001	1.09022E-003	7	...........	-327.66
	387	0.0776	-7.19738E-001	-3.45401E-005	0.00000E+000	-7.20000E-001	1.14022E-003	7	...........	-327.66
	388	0.0778	-7.29663E-001	-3.46996E-005	0.00000E+000	-7.30000E-001	1.24022E-003	7	...........	-327.66
	389	0.078	-7.39650E-001	-3.48481E-005	0.00000E+000	-7.40000E-001	1.09022E-003	7	...........	-327.66
	390	0.0782	-7.49663E-001	-3.49919E-005	0.00000E+000	-7.50000E-001	1.04022E-003	7	...........	-327.66
	391	0.0784	-7.59688E-001	-3.51144E-005	0.00000E+000	-7.60000E-001	1.21522E-003	7	...........	-327.66
	392	0.0786	-7.69638E-001	-3.52356E-005	0.00000E+000	-7.70000E-001	1.21522E-003	7	...........	-327.66
	393	0.0788	-7.79513E-001	-3.53452E-005	0.00000E+000	-7.80000E-001	1.09022E-003	7	...........	-327.66
	394	0.079	-7.89650E-001	-3.54399E-005	0.00000E+000	-7.90000E-001	1.09022E-003	7	...........	-327.66
	395	0.0792	-7.99575E-001	-3.55252E-005	0.00000E+000	-8.00000E-001	1.29022E-003	7	...........	-327.66
	396	0.0794	-8.09638E-001	-3.55939E-005	0.00000E+000	-8.10000E-001	1.04022E-003	7	...........	-327.66
	397	0.0796	-8.19675E-001	-3.56567E-005	0.00000E+000	-8.20000E-001	1.06522E-003	7	...........	-327.66
	398	0.0798	-8.29625E-001	-3.56972E-005	0.00000E+000	-8.30000E-001	9.15224E-004	7	...........	-327.66
	399	0.08	-8.39625E-001	-3.57237E-005	0.00000E+000	-8.40000E-001	1.16522E-003	7	...........	-327.66
	400	0.0802	-8.49688E-001	-3.57435E-005	0.00000E+000	-8.50000E-001	1.16522E-003	7	...........	-327.66
	401	0.0804	-8.59638E-001	-3.57402E-005	0.00000E+000	-8.60000E-001	1.19022E-003	7	...........	-327.66
	402	0.0806	-8.69675E-001	-3.57202E-005	0.00000E+000	-8.70000E-001	1.14022E-003	7	...........	-327.66
	403	0.0808	-8.79625E-001	-3.56852E-005	0.00000E+000	-8.80000E-001	1.09022E-003	7	...........	-327.66
	404	0.081	-8.89688E-001	-3.56320E-005	0.00000E+000	-8.90000E-001	9.40224E-004	7	...........	-327.66
	405	0.0812	-8.99700E-001	-3.55607E-005	0.00000E+000	-9.00000E-001	1.04022E-003	7	...........	-327.66
	406	0.0814	-8.89750E-001	-3.33291E-005	0.00000E+000	-8.90000E-001	1.11522E-003	7	...........	-327.66
	407	0.0816	-8.79788E-001	-3.11491E-005	0.00000E+000	-8.80000E-001	9.65224E-004	7	...........	-327.66
	408	0.0818	-8.69775E-001	-2.92626E-005	0.00000E+000	-8.70000E-001	9.90224E-004	7	...........	-327.66
	409	0.082	-8.59763E-001	-2.75674E-005	0.00000E+000	-8.60000E-001	1.09022E-003	7	...........	-327.66
	410	0.0822	-8.49713E-001	-2.60031E-005	0.00000E+000	-8.50000E-001	1.09022E-003	7	...........	-327.66
	411	0.0824	-8.39838E-001	-2.45442E-005	0.00000E+000	-8.40000E-001	1.06522E-003	7	...........	-327.66
	412	0.0826	-8.29713E-001	-2.31613E-005	0.00000E+000	-8.30000E-001	1.19022E-003	7	...........	-327.66
	413	0.0828	-8.19788E-001	-2.18376E-005	0.00000E+000	-8.20000E-001	1.06522E-003	7	...........	-327.66
	414	0.083	-8.09650E-001	-2.05681E-005	0.00000E+000	-8.10000E-001	1.09022E-003	7	...........	-327.66
	415	0.0832	-7.99738E-001	-1.93425E-005	0.00000E+000	-8.00000E-001	1.04022E-003	7	...........	-327.66
	416	0.0834	-7.89688E-001	-1.81486E-005	0.00000E+000	-7.90000E-001	9.15224E-004	7	...........	-327.66
	417	0.0836	-7.79725E-001	-1.69912E-005	0.00000E+000	-7.80000E-001	1.11522E-003	7	...........	-327.66
	418	0.0838	-7.69713E-001	-1.58640E-005	0.00000E+000	-7.70000E-001	1.21522E-003	7	...........	-327.66
	419	0.084	-7.59813E-001	-1.47646E-005	0.00000E+000	-7.60000E-001	1.09022E-003	7	...........	-327.66
	420	0.0842	-7.49688E-001	-1.37002E-005	0.00000E+000	-7.50000E-001	9.90224E-004	7	...........	-327.66
	421	0.0844	-7.39850E-001	-1.26513E-005	0.00000E+000	-7.40000E-001	9.90224E-004	7	...........	-327.66
	422	0.0846	-7.29713E-001	-1.16269E-005	0.00000E+000	-7.30000E-001	8.90224E-004	7	...........	-327.66
	423	0.0848	-7.19775E-001	-1.06298E-005	0.00000E+000	-7.20000E-001	1.14022E-003	7	...........	-327.66
	424	0.085	-7.09738E-001	-9.65216E-006	0.00000E+000	-7.10000E-001	1.04022E-003	7	...........	-327.66
	425	0.0852	-6.99850E-001	-8.69628E-006	0.00000E+000	-7.00000E-001	1.24022E-003	7	...........	-327.66
	426	0.0854	-6.89700E-001	-7.75940E-006	0.00000E+000	-6.90000E-001	9.40224E-004	7	...........	-327.66
	427	0.0856	-6.79738E-001	-6.84903E-006	0.00000E+000	-6.80000E-001	1.19022E-003	7	...........	-327.66
	428	0.0858	-6.69788E-001	-5.95566E-006	0.00000E+000	-6.70000E-001	1.14022E-003	7	...........	-327.66
	429	0.086	-6.59875E-001	-5.08379E-006	0.00000E+000	-6.60000E-001	1.19022E-003	7	...........	-327.66
	430	0.0862	-6.49713E-001	-4.22692E-006	0.00000E+000	-6.50000E-001	1.19022E-003	7	...........	-327.66
	431	0.0864	-6.39813E-001	-3.38831E-006	0.00000E+000	-6.40000E-001	1.11522E-003	7	...........	-327.66
	432	0.0866	-6.29738E-001	-2.56370E-006	0.00000E+000	-6.30000E-001	1.01522E-003	7	...........	-327.66
	433	0.0868	-6.19788E-001	-1.76359E-006	0.00000E+000	-6.20000E-001	1.06522E-003	7	...........	-327.66
	434	0.087	-6.09750E-001	-9.75229E-007	0.00000E+000	-6.10000E-001	1.09022E-003	7	...........	-327.66
	435	0.0872	-5.99875E-001	-2.02374E-007	0.00000E+000	-6.00000E-001	1.16522E-003	7	...........	-327.66
	436	0.0874	-5.89813E-001	5.58230E-007	0.00000E+000	-5.90000E-001	1.14022E-003	7	...........	-327.66
	437	0.0876	-5.79938E-001	1.30183E-006	0.00000E+000	-5.80000E-001	1.04022E-003	7	...........	-327.66
	438	0.0878	-5.69825E-001	2.03768E-006	0.00000E+000	-5.70000E-001	1.14022E-003	7	...........	-327.66
	439	0.088	-5.59988E-001	2.75853E-006	0.00000E+000	-5.60000E-001	1.04022E-003	7	...........	-327.66
	440	0.0882	-5.49688E-001	3.46838E-006	0.00000E+000	-5.50000E-001	1.11522E-003	7	...........	-327.66
	441	0.0884	-5.39988E-001	4.17347E-006	0.00000E+000	-5.40000E-001	9.90224E-004	7	...........	-327.66
	442	0.0886	-5.29975E-001	4.86382E-006	0.00000E+000	-5.30000E-001	1.09022E-003	7	...........	-327.66
	443	0.0888	-5.20000E-001	5.54516E-006	0.00000E+000	-5.20000E-001	1.04022E-003	7	...........	-327.66
	444	0.089	-5.09813E-001	6.22150E-006	0.00000E+000	-5.10000E-001	1.04022E-003	7	...........	-327.66
	445	0.0892	-4.99900E-001	6.88609E-006	0.00000E+000	-5.00000E-001	1.11522E-003	7	...........	-327.66
	446	0.0894	-4.89888E-001	7.54593E-006	0.00000E+000	-4.90000E-001	1.01522E-003	7	...........	-327.66
	447	0.0896	-4.79975E-001	8.19502E-006	0.00000E+000	-4.80000E-001	1.11522E-003	7	...........	-327.66
	448	0.0898	-4.69763E-001	8.85036E-006	0.00000E+000	-4.70000E-001	1.09022E-003	7	...........	-327.66
	449	0.09	-4.59950E-001	9.48645E-006	0.00000E+000	-4.60000E-001	1.09022E-003	7	...........	-327.66
	450	0.0902	-4.49813E-001	1.01178E-005	0.00000E+000	-4.50000E-001	1.16522E-003	7	...........	-327.66
	451	0.0904	-4.39975E-001	1.07461E-005	0.00000E+000	-4.40000E-001	1.04022E-003	7	...........	-327.66
	452	0.0906	-4.29900E-001	1.13660E-005	0.00000E+000	-4.30000E-001	1.09022E-003	7	...........	-327.66
	453	0.0908	-4.19988E-001	1.19800E-005	0.00000E+000	-4.20000E-001	1.19022E-003	7	...........	-327.66
	454	0.091	-4.09988E-001	1.25891E-005	0.00000E+000	-4.10000E-001	1.04022E-003	7	...........	-327.66
	455	0.0912	-4.00038E-001	1.31892E-005	0.00000E+000	-4.00000E-001	1.04022E-003	7	...........	-327.66
	456	0.0914	-3.89950E-001	1.37808E-005	0.00000E+000	-3.90000E-001	9.65224E-004	7	...........	-327.66
	457	0.0916	-3.80038E-001	1.43621E-005	0.00000E+000	-3.80000E-001	1.16522E-003	7	...........	-327.66
	458	0.0918	-3.69875E-001	1.49442E-005	0.00000E+000	-3.70000E-001	9.90224E-004	7	...........	-327.66
	459	0.092	-3.60013E-001	1.55168E-005	0.00000E+000	-3.60000E-001	1.01522E-003	7	...........	-327.66
	460	0.0922	-3.49988E-001	1.60726E-005	0.00000E+000	-3.50000E-001	1.14022E-003	7	...........	-327.66
	461	0.0924	-3.39863E-001	1.66199E-005	0.00000E+000	-3.40000E-001	1.21522E-003	7	...........	-327.66
	462	0.0926	-3.29938E-001	1.71592E-005	0.00000E+000	-3.30000E-001	1.16522E-003	7	...........	-327.66
	463	0.0928	-3.20063E-001	1.76873E-005	0.00000E+000	-3.20000E-001	1.09022E-003	7	...........	-327.66
	464	0.093	-3.09963E-001	1.82079E-005	0.00000E+000	-3.10000E-001	1.14022E-003	7	...........	-327.66
	465	0.0932	-3.00013E-001	1.87175E-005	0.00000E+000	-3.00000E-001	1.16522E-003	7	...........	-327.66
	466	0.0934	-2.89888E-001	1.92213E-005	0.00000E+000	-2.90000E-001	1.14022E-003	7	...........	-327.66
	467	0.0936	-2.79988E-001	1.97038E-005	0.00000E+000	-2.80000E-001	1.16522E-003	7	...........	-327.66
	468	0.0938	-2.69963E-001	2.01747E-005	0.00000E+000	-2.70000E-001	1.16522E-003	7	...........	-327.66
	469	0.094	-2.60013E-001	2.06287E-005	0.00000E+000	-2.60000E-001	1.19022E-003	7	...........	-327.66
	470	0.0942	-2.50025E-001	2.10778E-005	0.00000E+000	-2.50000E-001	1.16522E-003	7	...........	-327.66
	471	0.0944	-2.40063E-001	2.15183E-005	0.00000E+000	-2.40000E-001	1.01522E-003	7	...........	-327.66
	472	0.0946	-2.30025E-001	2.19474E-005	0.00000E+000	-2.30000E-001	9.65224E-004	7	...........	-327.66
	473	0.0948	-2.19950E-001	2.23542E-005	0.00000E+000	-2.20000E-001	1.16522E-003	7	...........	-327.66
	474	0.095	-2.09963E-001	2.27510E-005	0.00000E+000	-2.10000E-001	9.90224E-004	7	...........	-327.66
	475	0.0952	-2.00050E-001	2.31401E-005	0.00000E+000	-2.00000E-001	1.09022E-003	7	...........	-327.66
	476	0.0954	-1.89888E-001	2.35201E-005	0.00000E+000	-1.90000E-001	9.90224E-004	7	...........	-327.66
	477	0.0956	-1.80063E-001	2.38812E-005	0.00000E+000	-1.80000E-001	1.14022E-003	7	...........	-327.66
	478	0.0958	-1.70013E-001	2.42310E-005	0.00000E+000	-1.70000E-001	1.01522E-003	7	...........	-327.66
	479	0.096	-1.60038E-001	2.45705E-005	0.00000E+000	-1.60000E-001	1.11522E-003	7	...........	-327.66
	480	0.0962	-1.50050E-001	2.48965E-005	0.00000E+000	-1.50000E-001	1.01522E-003	7	...........	-327.66
	481	0.0964	-1.40025E-001	2.52161E-005	0.00000E+000	-1.40000E-001	1.09022E-003	7	...........	-327.66
	482	0.0966	-1.30063E-001	2.55239E-005	0.00000E+000	-1.30000E-001	1.14022E-003	7	...........	-327.66
	483	0.0968	-1.20050E-001	2.58259E-005	0.00000E+000	-1.20000E-001	1.11522E-003	7	...........	-327.66
	484	0.097	-1.10013E-001	2.61067E-005	0.00000E+000	-1.10000E-001	1.09022E-003	7	...........	-327.66
	485	0.0972	-1.00050E-001	2.63817E-005	0.00000E+000	-1.00000E-001	1.06522E-003	7	...........	-327.66
	486	0.0974	-9.01002E-002	2.66465E-005	0.00000E+000	-9.00000E-002	1.11522E-003	7	...........	-327.66
	487	0.0976	-8.00627E-002	2.69061E-005	0.00000E+000	-8.00000E-002	1.11522E-003	7	...........	-327.66
	488	0.0978	-7.00127E-002	2.71514E-005	0.00000E+000	-7.00000E-002	1.14022E-003	7	...........	-327.66
	489	0.098	-6.00252E-002	2.73936E-005	0.00000E+000	-6.00000E-002	1.11522E-003	7	...........	-327.66
	490	0.0982	-4.99752E-002	2.76282E-005	0.00000E+000	-5.00000E-002	1.04022E-003	7	...........	-327.66
	491	0.0984	-4.00752E-002	2.78537E-005	0.00000E+000	-4.00000E-002	1.01522E-003	7	...........	-327.66
	492	0.0986	-2.99127E-002	2.80722E-005	0.00000E+000	-3.00000E-002	1.09022E-003	7	...........	-327.66
	493	0.0988	-2.00002E-002	2.82815E-005	0.00000E+000	-2.00000E-002	1.09022E-003	7	...........	-327.66
	494	0.099	-9.90019E-003	2.84885E-005	0.00000E+000	-1.00000E-002	1.06522E-003	7	...........	-327.66
	495	0.0992	-3.76875E-005	2.86903E-005	0.00000E+000	-1.49012E-008	9.65224E-004	7	...........	-327.66
	496	0.0994	9.99981E-003	2.88863E-005	0.00000E+000	9.99999E-003	1.04022E-003	7	...........	-327.66
	497	0.0996	1.99373E-002	2.90721E-005	0.00000E+000	2.00000E-002	1.16522E-003	7	...........	-327.66
	498	0.0998	2.99873E-002	2.92416E-005	0.00000E+000	3.00000E-002	1.11522E-003	7	...........	-327.66
	499	0.1	3.99248E-002	2.94129E-005	0.00000E+000	4.00000E-002	1.11522E-003	7	...........	-327.66
	500	0.1002	4.99498E-002	2.95724E-005	0.00000E+000	5.00000E-002	1.26522E-003	7	...........	-327.66
	501	0.1004	5.99498E-002	2.97250E-005	0.00000E+000	6.00000E-002	1.01522E-003	7	...........	-327.66
	502	0.1006	6.98873E-002	2.98670E-005	0.00000E+000	7.00000E-002	9.40224E-004	7	...........	-327.66
	503	0.1008	7.99123E-002	2.99962E-005	0.00000E+000	8.00000E-002	1.24022E-003	7	...........	-327.66
	504	0.101	9.00373E-002	3.01193E-005	0.00000E+000	9.00000E-002	1.16522E-003	7	...........	-327.66
	505	0.1012	1.00012E-001	3.02310E-005	0.00000E+000	1.00000E-001	1.19022E-003	7	...........	-327.66
	506	0.1014	1.09962E-001	3.03288E-005	0.00000E+000	1.10000E-001	1.04022E-003	7	...........	-327.66
	507	0.1016	1.19937E-001	3.04268E-005	0.00000E+000	1.20000E-001	1.09022E-003	7	...........	-327.66
	508	0.1018	1.29987E-001	3.05063E-005	0.00000E+000	1.30000E-001	9.65224E-004	7	...........	-327.66
	509	0.102	1.40062E-001	3.05763E-005	0.00000E+000	1.40000E-001	1.14022E-003	7	...........	-327.66
	510	0.1022	1.49937E-001	3.06398E-005	0.00000E+000	1.50000E-001	1.01522E-003	7	...........	-327.66
	511	0.1024	1.59975E-001	3.06908E-005	0.00000E+000	1.60000E-001	1.04022E-003	7	...........	-327.66
	512	0.1026	1.70162E-001	3.07378E-005	0.00000E+000	1.70000E-001	1.21522E-003	7	...........	-327.66
	513	0.1028	1.79937E-001	3.07741E-005	0.00000E+000	1.80000E-001	1.09022E-003	7	...........	-327.66
	514	0.103	1.89950E-001	3.08011E-005	0.00000E+000	1.90000E-001	1.19022E-003	7	...........	-327.66
	515	0.1032	2.00037E-001	3.08261E-005	0.00000E+000	2.00000E-001	1.16522E-003	7	...........	-327.66
	516	0.1034	2.09950E-001	3.08419E-005	0.00000E+000	2.10000E-001	1.06522E-003	7	...........	-327.66
	517	0.1036	2.19987E-001	3.08491E-005	0.00000E+000	2.20000E-001	1.19022E-003	7	...........	-327.66
	518	0.1038	2.29937E-001	3.08509E-005	0.00000E+000	2.30000E-001	1.09022E-003	7	...........	-327.66
	519	0.104	2.39900E-001	3.08494E-005	0.00000E+000	2.40000E-001	1.06522E-003	7	...........	-327.66
	520	0.1042	2.50025E-001	3.08459E-005	0.00000E+000	2.50000E-001	1.11522E-003	7	...........	-327.66
	521	0.1044	2.59987E-001	3.08304E-005	0.00000E+000	2.60000E-001	1.11522E-003	7	...........	-327.66
	522	0.1046	2.70025E-001	3.08181E-005	0.00000E+000	2.70000E-001	1.16522E-003	7	...........	-327.66
	523	0.1048	2.80000E-001	3.07976E-005	0.00000E+000	2.80000E-001	1.06522E-003	7	...........	-327.66
	524	0.105	2.90000E-001	3.07748E-005	0.00000E+000	2.90000E-001	1.04022E-003	7	...........	-327.66
	525	0.1052	2.99962E-001	3.07483E-005	0.00000E+000	3.00000E-001	1.14022E-003	7	...........	-327.66
	526	0.1054	3.10012E-001	3.07231E-005	0.00000E+000	3.10000E-001	1.01522E-003	7	...........	-327.66
	527	0.1056	3.19925E-001	3.06921E-005	0.00000E+000	3.20000E-001	1.16522E-003	7	...........	-327.66
	528	0.1058	3.29962E-001	3.06598E-005	0.00000E+000	3.30000E-001	1.11522E-003	7	...........	-327.66
	529	0.106	3.39937E-001	3.06216E-005	0.00000E+000	3.40000E-001	1.19022E-003	7	...........	-327.66
	530	0.1062	3.50012E-001	3.05831E-005	0.00000E+000	3.50000E-001	1.09022E-003	7	...........	-327.66
	531	0.1064	3.59887E-001	3.05436E-005	0.00000E+000	3.60000E-001	1.09022E-003	7	...........	-327.66
	532	0.1066	3.70012E-001	3.05033E-005	0.00000E+000	3.70000E-001	1.04022E-003	7	...........	-327.66
	533	0.1068	3.79962E-001	3.04591E-005	0.00000E+000	3.80000E-001	1.11522E-003	7	...........	-327.66
	534	0.107	3.89900E-001	3.04123E-005	0.00000E+000	3.90000E-001	8.65224E-004	7	...........	-327.66
	535	0.1072	3.99937E-001	3.03665E-005	0.00000E+000	4.00000E-001	1.14022E-003	7	...........	-327.66
	536	0.1074	4.09937E-001	3.03203E-005	0.00000E+000	4.10000E-001	1.14022E-003	7	...........	-327.66
	537	0.1076	4.20025E-001	3.02740E-005	0.00000E+000	4.20000E-001	1.11522E-003	7	...........	-327.66
	538	0.1078	4.29937E-001	3.02263E-005	0.00000E+000	4.30000E-001	9.65224E-004	7	...........	-327.66
	539	0.108	4.39887E-001	3.01798E-005	0.00000E+000	4.40000E-001	1.11522E-003	7	...........	-327.66
	540	0.1082	4.50062E-001	3.01350E-005	0.00000E+000	4.50000E-001	1.09022E-003	7	...........	-327.66
	541	0.1084	4.59912E-001	3.00903E-005	0.00000E+000	4.60000E-001	9.90224E-004	7	...........	-327.66
	542	0.1086	4.69887E-001	3.00522E-005	0.00000E+000	4.70000E-001	9.40224E-004	7	...........	-327.66
	543	0.1088	4.79937E-001	3.00060E-005	0.00000E+000	4.80000E-001	1.06522E-003	7	...........	-327.66
	544	0.109	4.89875E-001	2.99697E-005	0.00000E+000	4.90000E-001	1.16522E-003	7	...........	-327.66
	545	0.1092	4.99975E-001	2.99320E-005	0.00000E+000	5.00000E-001	1.09022E-003	7	...........	-327.66
	546	0.1094	5.09987E-001	2.98967E-005	0.00000E+000	5.10000E-001	1.04022E-003	7	...........	-327.66
	547	0.1096	5.19925E-001	2.98647E-005	0.00000E+000	5.20000E-001	1.09022E-003	7	...........	-327.66
	548	0.1098	5.30000E-001	2.98365E-005	0.00000E+000	5.30000E-001	1.14022E-003	7	...........	-327.66
	549	0.11	5.39937E-001	2.98065E-005	0.00000E+000	5.40000E-001	1.04022E-003	7	...........	-327.66
	550	0.1102	5.49912E-001	2.97865E-005	0.00000E+000	5.50000E-001	9.90224E-004	7	...........	-327.66
	551	0.1104	5.59912E-001	2.97680E-005	0.00000E+000	5.60000E-001	1.09022E-003	7	...........	-327.66
	552	0.1106	5.69962E-001	2.97495E-005	0.00000E+000	5.70000E-001	1.04022E-003	7	...........	-327.66
	553	0.1108	5.79937E-001	2.97367E-005	0.00000E+000	5.80000E-001	9.65224E-004	7	...........	-327.66
	554	0.111	5.89875E-001	2.97287E-005	0.00000E+000	5.90000E-001	1.01522E-003	7	...........	-327.66
	555	0.1112	5.99962E-001	2.97190E-005	0.00000E+000	6.00000E-001	1.19022E-003	7	...........	-327.66
CURVE3	TABLE
	Pt	T	Vf	Im	Vu	Sig	Ach	IERange	Over	Temp
	#	s	V vs. Ref.	A	V	V	V	#	bits	deg C
	556	0.1114	5.89987E-001	2.71361E-005	0.00000E+000	5.90000E-001	1.09022E-003	7	...........	-327.66
	557	0.1116	5.79912E-001	2.47403E-005	0.00000E+000	5.80000E-001	1.06522E-003	7	...........	-327.66
	558	0.1118	5.70062E-001	2.27483E-005	0.00000E+000	5.70000E-001	1.11522E-003	7	...........	-327.66
	559	0.112	5.60012E-001	2.10215E-005	0.00000E+000	5.60000E-001	1.11522E-003	7	...........	-327.66
	560	0.1122	5.49987E-001	1.94828E-005	0.00000E+000	5.50000E-001	1.29022E-003	7	...........	-327.66
	561	0.1124	5.39962E-001	1.80856E-005	0.00000E+000	5.40000E-001	1.24022E-003	7	...........	-327.66
	562	0.1126	5.30087E-001	1.67949E-005	0.00000E+000	5.30000E-001	1.21522E-003	7	...........	-327.66
	563	0.1128	5.20000E-001	1.55968E-005	0.00000E+000	5.20000E-001	1.19022E-003	7	...........	-327.66
	564	0.113	5.09937E-001	1.44706E-005	0.00000E+000	5.10000E-001	1.14022E-003	7	...........	-327.66
	565	0.1132	4.99950E-001	1.34087E-005	0.00000E+000	5.00000E-001	1.16522E-003	7	...........	-327.66
	566	0.1134	4.90012E-001	1.24033E-005	0.00000E+000	4.90000E-001	1.24022E-003	7	...........	-327.66
	567	0.1136	4.79912E-001	1.14395E-005	0.00000E+000	4.80000E-001	1.09022E-003	7	...........	-327.66
	568	0.1138	4.69975E-001	1.05233E-005	0.00000E+000	4.70000E-001	1.14022E-003	7	...........	-327.66
	569	0.114	4.59962E-001	9.63797E-006	0.00000E+000	4.60000E-001	1.11522E-003	7	...........	-327.66
	570	0.1142	4.50125E-001	8.79435E-006	0.00000E+000	4.50000E-001	1.04022E-003	7	...........	-327.66
	571	0.1144	4.40050E-001	7.97649E-006	0.00000E+000	4.40000E-001	1.11522E-003	7	...........	-327.66
	572	0.1146	4.30087E-001	7.18538E-006	0.00000E+000	4.30000E-001	1.14022E-003	7	...........	-327.66
	573	0.1148	4.20062E-001	6.42503E-006	0.00000E+000	4.20000E-001	1.09022E-003	7	...........	-327.66
	574	0.115	4.09987E-001	5.68118E-006	0.00000E+000	4.10000E-001	1.04022E-003	7	...........	-327.66
	575	0.1152	4.00012E-001	4.96358E-006	0.00000E+000	4.00000E-001	1.14022E-003	7	...........	-327.66
	576	0.1154	3.89987E-001	4.26624E-006	0.00000E+000	3.90000E-001	1.16522E-003	7	...........	-327.66
	577	0.1156	3.79962E-001	3.58139E-006	0.00000E+000	3.80000E-001	1.09022E-003	7	...........	-327.66
	578	0.1158	3.69987E-001	2.92005E-006	0.00000E+000	3.70000E-001	1.09022E-003	7	...........	-327.66
	579	0.116	3.59937E-001	2.27771E-006	0.00000E+000	3.60000E-001	1.16522E-003	7	...........	-327.66
	580	0.1162	3.50037E-001	1.64838E-006	0.00000E+000	3.50000E-001	1.14022E-003	7	...........	-327.66
	581	0.1164	3.40000E-001	1.03630E-006	0.00000E+000	3.40000E-001	1.09022E-003	7	...........	-327.66
	582	0.1166	3.30062E-001	4.36213E-007	0.00000E+000	3.30000E-001	1.01522E-003	7	...........	-327.66
	583	0.1168	3.20212E-001	-1.52117E-007	0.00000E+000	3.20000E-001	1.06522E-003	7	...........	-327.66
	584	0.117	3.10075E-001	-7.27195E-007	0.00000E+000	3.10000E-001	1.04022E-003	7	...........	-327.66
	585	0.1172	2.99987E-001	-1.29177E-006	0.00000E+000	3.00000E-001	1.11522E-003	7	...........	-327.66
	586	0.1174	2.90137E-001	-1.83610E-006	0.00000E+000	2.90000E-001	1.09022E-003	7	...........	-327.66
	587	0.1176	2.80025E-001	-2.38017E-006	0.00000E+000	2.80000E-001	1.16522E-003	7	...........	-327.66
	588	0.1178	2.70050E-001	-2.90849E-006	0.00000E+000	2.70000E-001	1.01522E-003	7	...........	-327.66
	589	0.118	2.60012E-001	-3.43056E-006	0.00000E+000	2.60000E-001	9.90224E-004	7	...........	-327.66
	590	0.1182	2.50137E-001	-3.93563E-006	0.00000E+000	2.50000E-001	1.06522E-003	7	...........	-327.66
	591	0.1184	2.40150E-001	-4.44170E-006	0.00000E+000	2.40000E-001	1.19022E-003	7	...........	-327.66
	592	0.1186	2.30062E-001	-4.93452E-006	0.00000E+000	2.30000E-001	1.01522E-003	7	...........	-327.66
	593	0.1188	2.20112E-001	-5.41958E-006	0.00000E+000	2.20000E-001	1.19022E-003	7	...........	-327.66
	594	0.119	2.10100E-001	-5.89965E-006	0.00000E+000	2.10000E-001	1.21522E-003	7	...........	-327.66
	595	0.1192	1.99987E-001	-6.36871E-006	0.00000E+000	2.00000E-001	1.16522E-003	7	...........	-327.66
	596	0.1194	1.90137E-001	-6.83078E-006	0.00000E+000	1.90000E-001	1.14022E-003	7	...........	-327.66
	597	0.1196	1.80125E-001	-7.29184E-006	0.00000E+000	1.80000E-001	9.40224E-004	7	...........	-327.66
	598	0.1198	1.70225E-001	-7.73890E-006	0.00000E+000	1.70000E-001	1.11522E-003	7	...........	-327.66
	599	0.12	1.60125E-001	-8.18446E-006	0.00000E+000	1.60000E-001	1.21522E-003	7	...........	-327.66
	600	0.1202	1.50187E-001	-8.62302E-006	0.00000E+000	1.50000E-001	9.40224E-004	7	...........	-327.66
	601	0.1204	1.40187E-001	-9.05408E-006	0.00000E+000	1.40000E-001	9.15224E-004	7	...........	-327.66
	602	0.1206	1.30262E-001	-9.48339E-006	0.00000E+000	1.30000E-001	1.14022E-003	7	...........	-327.66
	603	0.1208	1.20112E-001	-9.90445E-006	0.00000E+000	1.20000E-001	1.04022E-003	7	...........	-327.66
	604	0.121	1.10112E-001	-1.03208E-005	0.00000E+000	1.10000E-001	1.19022E-003	7	...........	-327.66
	605	0.1212	1.00112E-001	-1.07311E-005	0.00000E+000	1.00000E-001	1.14022E-003	7	...........	-327.66
	606	0.1214	9.02748E-002	-1.11411E-005	0.00000E+000	9.00000E-002	1.04022E-003	7	...........	-327.66
	607	0.1216	8.00998E-002	-1.15454E-005	0.00000E+000	8.00000E-002	1.04022E-003	7	...........	-327.66
	608	0.1218	7.02123E-002	-1.19440E-005	0.00000E+000	7.00000E-002	1.06522E-003	7	...........	-327.66
	609	0.122	6.01623E-002	-1.23425E-005	0.00000E+000	6.00000E-002	1.04022E-003	7	...........	-327.66
	610	0.1222	5.01748E-002	-1.27318E-005	0.00000E+000	5.00000E-002	1.16522E-003	7	...........	-327.66
	611	0.1224	4.01373E-002	-1.31181E-005	0.00000E+000	4.00000E-002	9.65224E-004	7	...........	-327.66
	612	0.1226	3.01498E-002	-1.35042E-005	0.00000E+000	3.00000E-002	1.14022E-003	7	...........	-327.66
	613	0.1228	2.01123E-002	-1.38837E-005	0.00000E+000	2.00000E-002	9.90224E-004	7	...........	-327.66
	614	0.123	1.02373E-002	-1.42593E-005	0.00000E+000	9.99999E-003	1.19022E-003	7	...........	-327.66
	615	0.1232	2.48125E-005	-1.46323E-005	0.00000E+000	-1.49012E-008	1.16522E-003	7	...........	-327.66
	616	0.1234	-9.90019E-003	-1.50004E-005	0.00000E+000	-1.00000E-002	1.06522E-003	7	...........	-327.66
	617	0.1236	-1.99252E-002	-1.53644E-005	0.00000E+000	-2.00000E-002	1.19022E-003	7	...........	-327.66
	618	0.1238	-2.97377E-002	-1.57295E-005	0.00000E+000	-3.00000E-002	1.09022E-003	7	...........	-327.66
	619	0.124	-3.99377E-002	-1.60890E-005	0.00000E+000	-4.00000E-002	1.06522E-003	7	...........	-327.66
	620	0.1242	-4.98252E-002	-1.64481E-005	0.00000E+000	-5.00000E-002	1.16522E-003	7	...........	-327.66
	621	0.1244	-5.99752E-002	-1.68009E-005	0.00000E+000	-6.00000E-002	1.11522E-003	7	...........	-327.66
	622	0.1246	-6.96627E-002	-1.71489E-005	0.00000E+000	-7.00000E-002	1.19022E-003	7	...........	-327.66
	623	0.1248	-7.98127E-002	-1.75010E-005	0.00000E+000	-8.00000E-002	1.14022E-003	7	...........	-327.66
	624	0.125	-8.98502E-002	-1.78483E-005	0.00000E+000	-9.00000E-002	1.11522E-003	7	...........	-327.66
	625	0.1252	-9.99377E-002	-1.81858E-005	0.00000E+000	-1.00000E-001	1.14022E-003	7	...........	-327.66
	626	0.1254	-1.09750E-001	-1.85229E-005	0.00000E+000	-1.10000E-001	1.21522E-003	7	...........	-327.66
	627	0.1256	-1.19875E-001	-1.88579E-005	0.00000E+000	-1.20000E-001	1.09022E-003	7	...........	-327.66
	628	0.1258	-1.29888E-001	-1.91932E-005	0.00000E+000	-1.30000E-001	1.06522E-003	7	...........	-327.66
	629	0.126	-1.39900E-001	-1.95205E-005	0.00000E+000	-1.40000E-001	1.21522E-003	7	...........	-327.66
	630	0.1262	-1.49788E-001	-1.98448E-005	0.00000E+000	-1.50000E-001	1.19022E-003	7	...........	-327.66
	631	0.1264	-1.59750E-001	-2.01691E-005	0.00000E+000	-1.60000E-001	1.14022E-003	7	...........	-327.66
	632	0.1266	-1.69813E-001	-2.04876E-005	0.00000E+000	-1.70000E-001	1.11522E-003	7	...........	-327.66
	633	0.1268	-1.79925E-001	-2.08097E-005	0.00000E+000	-1.80000E-001	1.19022E-003	7	...........	-327.66
	634	0.127	-1.89675E-001	-2.11247E-005	0.00000E+000	-1.90000E-001	1.01522E-003	7	...........	-327.66
	635	0.1272	-1.99813E-001	-2.14365E-005	0.00000E+000	-2.00000E-001	1.06522E-003	7	...........	-327.66
	636	0.1274	-2.09763E-001	-2.17483E-005	0.00000E+000	-2.10000E-001	1.14022E-003	7	...........	-327.66
	637	0.1276	-2.19788E-001	-2.20591E-005	0.00000E+000	-2.20000E-001	1.24022E-003	7	...........	-327.66
	638	0.1278	-2.29650E-001	-2.23651E-005	0.00000E+000	-2.30000E-001	1.14022E-003	7	...........	-327.66
	639	0.128	-2.39888E-001	-2.26774E-005	0.00000E+000	-2.40000E-001	1.14022E-003	7	...........	-327.66
	640	0.1282	-2.49788E-001	-2.29812E-005	0.00000E+000	-2.50000E-001	1.06522E-003	7	...........	-327.66
	641	0.1284	-2.59775E-001	-2.32868E-005	0.00000E+000	-2.60000E-001	1.14022E-003	7	...........	-327.66
	642	0.1286	-2.69700E-001	-2.35928E-005	0.00000E+000	-2.70000E-001	1.24022E-003	7	...........	-327.66
	643	0.1288	-2.79788E-001	-2.38974E-005	0.00000E+000	-2.80000E-001	1.04022E-003	7	...........	-327.66
	644	0.129	-2.89838E-001	-2.41984E-005	0.00000E+000	-2.90000E-001	1.04022E-003	7	...........	-327.66
	645	0.1292	-2.99763E-001	-2.45009E-005	0.00000E+000	-3.00000E-001	1.11522E-003	7	...........	-327.66
	646	0.1294	-3.09750E-001	-2.48030E-005	0.00000E+000	-3.10000E-001	1.21522E-003	7	...........	-327.66
	647	0.1296	-3.19750E-001	-2.51070E-005	0.00000E+000	-3.20000E-001	1.06522E-003	7	...........	-327.66
	648	0.1298	-3.29700E-001	-2.54051E-005	0.00000E+000	-3.30000E-001	1.14022E-003	7	...........	-327.66
	649	0.13	-3.39813E-001	-2.57011E-005	0.00000E+000	-3.40000E-001	9.65224E-004	7	...........	-327.66
	650	0.1302	-3.49663E-001	-2.59956E-005	0.00000E+000	-3.50000E-001	1.09022E-003	7	...........	-327.66
	651	0.1304	-3.59813E-001	-2.62939E-005	0.00000E+000	-3.60000E-001	1.04022E-003	7	...........	-327.66
	652	0.1306	-3.69713E-001	-2.65845E-005	0.00000E+000	-3.70000E-001	1.11522E-003	7	...........	-327.66
	653	0.1308	-3.79838E-001	-2.68788E-005	0.00000E+000	-3.80000E-001	1.09022E-003	7	...........	-327.66
	654	0.131	-3.89675E-001	-2.71678E-005	0.00000E+000	-3.90000E-001	1.09022E-003	7	...........	-327.66
	655	0.1312	-3.99788E-001	-2.74558E-005	0.00000E+000	-4.00000E-001	1.09022E-003	7	...........	-327.66
	656	0.1314	-4.09663E-001	-2.77424E-005	0.00000E+000	-4.10000E-001	1.01522E-003	7	...........	-327.66
	657	0.1316	-4.19763E-001	-2.80264E-005	0.00000E+000	-4.20000E-001	1.01522E-003	7	...........	-327.66
	658	0.1318	-4.29700E-001	-2.83122E-005	0.00000E+000	-4.30000E-001	1.01522E-003	7	...........	-327.66
	659	0.132	-4.39725E-001	-2.85897E-005	0.00000E+000	-4.40000E-001	1.16522E-003	7	...........	-327.66
	660	0.1322	-4.49675E-001	-2.88710E-005	0.00000E+000	-4.50000E-001	1.19022E-003	7	...........	-327.66
	661	0.1324	-4.59775E-001	-2.91476E-005	0.00000E+000	-4.60000E-001	1.06522E-003	7	...........	-327.66
	662	0.1326	-4.69638E-001	-2.94209E-005	0.00000E+000	-4.70000E-001	1.19022E-003	7	...........	-327.66
	663	0.1328	-4.79675E-001	-2.96919E-005	0.00000E+000	-4.80000E-001	1.06522E-003	7	...........	-327.66
	664	0.133	-4.89713E-001	-2.99597E-005	0.00000E+000	-4.90000E-001	1.09022E-003	7	...........	-327.66
	665	0.1332	-4.99700E-001	-3.02260E-005	0.00000E+000	-5.00000E-001	1.19022E-003	7	...........	-327.66
	666	0.1334	-5.09700E-001	-3.04878E-005	0.00000E+000	-5.10000E-001	1.01522E-003	7	...........	-327.66
	667	0.1336	-5.19750E-001	-3.07433E-005	0.00000E+000	-5.20000E-001	1.04022E-003	7	...........	-327.66
	668	0.1338	-5.29775E-001	-3.10023E-005	0.00000E+000	-5.30000E-001	1.04022E-003	7	...........	-327.66
	669	0.134	-5.39663E-001	-3.12546E-005	0.00000E+000	-5.40000E-001	1.19022E-003	7	...........	-327.66
	670	0.1342	-5.49713E-001	-3.15019E-005	0.00000E+000	-5.50000E-001	1.14022E-003	7	...........	-327.66
	671	0.1344	-5.59850E-001	-3.17447E-005	0.00000E+000	-5.60000E-001	1.09022E-003	7	...........	-327.66
	672	0.1346	-5.69663E-001	-3.19852E-005	0.00000E+000	-5.70000E-001	1.11522E-003	7	...........	-327.66
	673	0.1348	-5.79738E-001	-3.22212E-005	0.00000E+000	-5.80000E-001	1.04022E-003	7	...........	-327.66
	674	0.135	-5.89663E-001	-3.24540E-005	0.00000E+000	-5.90000E-001	1.09022E-003	7	...........	-327.66
	675	0.1352	-5.99550E-001	-3.26815E-005	0.00000E+000	-6.00000E-001	1.29022E-003	7	...........	-327.66
	676	0.1354	-6.09738E-001	-3.29063E-005	0.00000E+000	-6.10000E-001	1.06522E-003	7	...........	-327.66
	677	0.1356	-6.19675E-001	-3.31226E-005	0.00000E+000	-6.20000E-001	1.16522E-003	7	...........	-327.66
	678	0.1358	-6.29613E-001	-3.33351E-005	0.00000E+000	-6.30000E-001	1.09022E-003	7	...........	-327.66
	679	0.136	-6.39713E-001	-3.35382E-005	0.00000E+000	-6.40000E-001	1.16522E-003	7	...........	-327.66
	680	0.1362	-6.49738E-001	-3.37434E-005	0.00000E+000	-6.50000E-001	1.19022E-003	7	...........	-327.66
	681	0.1364	-6.59725E-001	-3.39372E-005	0.00000E+000	-6.60000E-001	1.01522E-003	7	...........	-327.66
	682	0.1366	-6.69625E-001	-3.41305E-005	0.00000E+000	-6.70000E-001	1.04022E-003	7	...........	-327.66
	683	0.1368	-6.79625E-001	-3.43090E-005	0.00000E+000	-6.80000E-001	9.90224E-004	7	...........	-327.66
	684	0.137	-6.89688E-001	-3.44865E-005	0.00000E+000	-6.90000E-001	1.09022E-003	7	...........	-327.66
	685	0.1372	-6.99713E-001	-3.46511E-005	0.00000E+000	-7.00000E-001	1.14022E-003	7	...........	-327.66
	686	0.1374	-7.09650E-001	-3.48098E-005	0.00000E+000	-7.10000E-001	1.16522E-003	7	...........	-327.66
	687	0.1376	-7.19663E-001	-3.49624E-005	0.00000E+000	-7.20000E-001	1.21522E-003	7	...........	-327.66
	688	0.1378	-7.29638E-001	-3.51089E-005	0.00000E+000	-7.30000E-001	1.09022E-003	7	...........	-327.66
	689	0.138	-7.39713E-001	-3.52409E-005	0.00000E+000	-7.40000E-001	1.21522E-003	7	...........	-327.66
	690	0.1382	-7.49663E-001	-3.53659E-005	0.00000E+000	-7.50000E-001	1.16522E-003	7	...........	-327.66
	691	0.1384	-7.59650E-001	-3.54759E-005	0.00000E+000	-7.60000E-001	1.16522E-003	7	...........	-327.66
	692	0.1386	-7.69713E-001	-3.55827E-005	0.00000E+000	-7.70000E-001	1.11522E-003	7	...........	-327.66
	693	0.1388	-7.79538E-001	-3.56785E-005	0.00000E+000	-7.80000E-001	1.14022E-003	7	...........	-327.66
	694	0.139	-7.89650E-001	-3.57635E-005	0.00000E+000	-7.90000E-001	1.06522E-003	7	...........	-327.66
	695	0.1392	-7.99713E-001	-3.58322E-005	0.00000E+000	-8.00000E-001	1.19022E-003	7	...........	-327.66
	696	0.1394	-8.09575E-001	-3.58940E-005	0.00000E+000	-8.10000E-001	1.29022E-003	7	...........	-327.66
	697	0.1396	-8.19700E-001	-3.59422E-005	0.00000E+000	-8.20000E-001	1.16522E-003	7	...........	-327.66
	698	0.1398	-8.29600E-001	-3.59730E-005	0.00000E+000	-8.30000E-001	1.14022E-003	7	...........	-327.66
	699	0.14	-8.39763E-001	-3.59915E-005	0.00000E+000	-8.40000E-001	9.65224E-004	7	...........	-327.66
	700	0.1402	-8.49688E-001	-3.59975E-005	0.00000E+000	-8.50000E-001	9.90224E-004	7	...........	-327.66
	701	0.1404	-8.59688E-001	-3.59885E-005	0.00000E+000	-8.60000E-001	1.14022E-003	7	...........	-327.66
	702	0.1406	-8.69663E-001	-3.59637E-005	0.00000E+000	-8.70000E-001	1.14022E-003	7	...........	-327.66
	703	0.1408	-8.79588E-001	-3.59172E-005	0.00000E+000	-8.80000E-001	1.19022E-003	7	...........	-327.66
	704	0.141	-8.89725E-001	-3.58627E-005	0.00000E+000	-8.90000E-001	1.04022E-003	7	...........	-327.66
	705	0.1412	-8.99675E-001	-3.57815E-005	0.00000E+000	-9.00000E-001	1.29022E-003	7	...........	-327.66
	706	0.1414	-8.89725E-001	-3.35237E-005	0.00000E+000	-8.90000E-001	1.24022E-003	7	...........	-327.66
	707	0.1416	-8.79713E-001	-3.13006E-005	0.00000E+000	-8.80000E-001	1.16522E-003	7	...........	-327.66
	708	0.1418	-8.69713E-001	-2.93583E-005	0.00000E+000	-8.70000E-001	1.21522E-003	7	...........	-327.66
	709	0.142	-8.59725E-001	-2.76094E-005	0.00000E+000	-8.60000E-001	1.01522E-003	7	...........	-327.66
	710	0.1422	-8.49788E-001	-2.59939E-005	0.00000E+000	-8.50000E-001	1.09022E-003	7	...........	-327.66
	711	0.1424	-8.39763E-001	-2.44812E-005	0.00000E+000	-8.40000E-001	1.01522E-003	7	...........	-327.66
	712	0.1426	-8.29638E-001	-2.30475E-005	0.00000E+000	-8.30000E-001	1.11522E-003	7	...........	-327.66
	713	0.1428	-8.19775E-001	-2.16828E-005	0.00000E+000	-8.20000E-001	1.19022E-003	7	...........	-327.66
	714	0.143	-8.09763E-001	-2.03641E-005	0.00000E+000	-8.10000E-001	1.24022E-003	7	...........	-327.66
	715	0.1432	-7.99775E-001	-1.90959E-005	0.00000E+000	-8.00000E-001	1.16522E-003	7	...........	-327.66
	716	0.1434	-7.89700E-001	-1.78700E-005	0.00000E+000	-7.90000E-001	1.16522E-003	7	...........	-327.66
	717	0.1436	-7.79663E-001	-1.66761E-005	0.00000E+000	-7.80000E-001	1.09022E-003	7	...........	-327.66
	718	0.1438	-7.69688E-001	-1.55177E-005	0.00000E+000	-7.70000E-001	1.06522E-003	7	...........	-327.66
	719	0.144	-7.59725E-001	-1.43921E-005	0.00000E+000	-7.60000E-001	1.09022E-003	7	...........	-327.66
	720	0.1442	-7.49638E-001	-1.33004E-005	0.00000E+000	-7.50000E-001	1.19022E-003	7	...........	-327.66
	721	0.1444	-7.39875E-001	-1.22313E-005	0.00000E+000	-7.40000E-001	1.19022E-003	7	...........	-327.66
	722	0.1446	-7.29738E-001	-1.11904E-005	0.00000E+000	-7.30000E-001	1.04022E-003	7	...........	-327.66
	723	0.1448	-7.19725E-001	-1.01785E-005	0.00000E+000	-7.20000E-001	1.29022E-003	7	...........	-327.66
	724	0.145	-7.09763E-001	-9.19135E-006	0.00000E+000	-7.10000E-001	1.14022E-003	7	...........	-327.66
	725	0.1452	-6.99888E-001	-8.22972E-006	0.00000E+000	-7.00000E-001	9.65224E-004	7	...........	-327.66
	726	0.1454	-6.89713E-001	-7.29059E-006	0.00000E+000	-6.90000E-001	1.21522E-003	7	...........	-327.66
	727	0.1456	-6.79738E-001	-6.37396E-006	0.00000E+000	-6.80000E-001	1.24022E-003	7	...........	-327.66
	728	0.1458	-6.69788E-001	-5.48234E-006	0.00000E+000	-6.70000E-001	1.16522E-003	7	...........	-327.66
	729	0.146	-6.59775E-001	-4.61347E-006	0.00000E+000	-6.60000E-001	1.06522E-003	7	...........	-327.66
	730	0.1462	-6.49813E-001	-3.75836E-006	0.00000E+000	-6.50000E-001	9.90224E-004	7	...........	-327.66
	731	0.1464	-6.39963E-001	-2.92549E-006	0.00000E+000	-6.40000E-001	1.01522E-003	7	...........	-327.66
	732	0.1466	-6.29700E-001	-2.11363E-006	0.00000E+000	-6.30000E-001	1.09022E-003	7	...........	-327.66
	733	0.1468	-6.19913E-001	-1.32153E-006	0.00000E+000	-6.20000E-001	1.09022E-003	7	...........	-327.66
	734	0.147	-6.09800E-001	-5.39420E-007	0.00000E+000	-6.10000E-001	9.90224E-004	7	...........	-327.66
	735	0.1472	-5.99950E-001	2.29935E-007	0.00000E+000	-6.00000E-001	1.21522E-003	7	...........	-327.66
	736	0.1474	-5.89825E-001	9.75787E-007	0.00000E+000	-5.90000E-001	1.06522E-003	7	...........	-327.66
	737	0.1476	-5.79813E-001	1.71514E-006	0.00000E+000	-5.80000E-001	1.16522E-003	7	...........	-327.66
	738	0.1478	-5.69888E-001	2.43649E-006	0.00000E+000	-5.70000E-001	1.16522E-003	7	...........	-327.66
	739	0.148	-5.60013E-001	3.14783E-006	0.00000E+000	-5.60000E-001	1.09022E-003	7	...........	-327.66
	740	0.1482	-5.49813E-001	3.85018E-006	0.00000E+000	-5.50000E-001	1.11522E-003	7	...........	-327.66
	741	0.1484	-5.39900E-001	4.54402E-006	0.00000E+000	-5.40000E-001	1.06522E-003	7	...........	-327.66
	742	0.1486	-5.30038E-001	5.22912E-006	0.00000E+000	-5.30000E-001	1.06522E-003	7	...........	-327.66
	743	0.1488	-5.20063E-001	5.90771E-006	0.00000E+000	-5.20000E-001	1.19022E-003	7	...........	-327.66
	744	0.149	-5.09713E-001	6.58255E-006	0.00000E+000	-5.10000E-001	1.24022E-003	7	...........	-327.66
	745	0.1492	-4.99825E-001	7.24089E-006	0.00000E+000	-5.00000E-001	1.06522E-003	7	...........	-327.66
	746	0.1494	-4.89875E-001	7.89798E-006	0.00000E+000	-4.90000E-001	1.14022E-003	7	...........	-327.66
	747	0.1496	-4.79938E-001	8.55307E-006	0.00000E+000	-4.80000E-001	1.29022E-003	7	...........	-327.66
	748	0.1498	-4.69788E-001	9.19641E-006	0.00000E+000	-4.70000E-001	1.09022E-003	7	...........	-327.66
	749	0.15	-4.59988E-001	9.84099E-006	0.00000E+000	-4.60000E-001	1.19022E-003	7	...........	-327.66
	750	0.1502	-4.49888E-001	1.04728E-005	0.00000E+000	-4.50000E-001	1.11522E-003	7	...........	-327.66
	751	0.1504	-4.39963E-001	1.11079E-005	0.00000E+000	-4.40000E-001	1.16522E-003	7	...........	-327.66
	752	0.1506	-4.29913E-001	1.17368E-005	0.00000E+000	-4.30000E-001	1.04022E-003	7	...........	-327.66
	753	0.1508	-4.19975E-001	1.23611E-005	0.00000E+000	-4.20000E-001	9.90224E-004	7	...........	-327.66
	754	0.151	-4.09888E-001	1.29742E-005	0.00000E+000	-4.10000E-001	9.90224E-004	7	...........	-327.66
	755	0.1512	-4.00013E-001	1.35813E-005	0.00000E+000	-4.00000E-001	1.06522E-003	7	...........	-327.66
	756	0.1514	-3.89975E-001	1.41813E-005	0.00000E+000	-3.90000E-001	1.01522E-003	7	...........	-327.66
	757	0.1516	-3.79975E-001	1.47739E-005	0.00000E+000	-3.80000E-001	1.16522E-003	7	...........	-327.66
	758	0.1518	-3.69825E-001	1.53630E-005	0.00000E+000	-3.70000E-001	1.16522E-003	7	...........	-327.66
	759	0.152	-3.60013E-001	1.59358E-005	0.00000E+000	-3.60000E-001	1.14022E-003	7	...........	-327.66
	760	0.1522	-3.49938E-001	1.65089E-005	0.00000E+000	-3.50000E-001	1.16522E-003	7	...........	-327.66
	761	0.1524	-3.40038E-001	1.70647E-005	0.00000E+000	-3.40000E-001	9.15224E-004	7	...........	-327.66
	762	0.1526	-3.30013E-001	1.76143E-005	0.00000E+000	-3.30000E-001	1.09022E-003	7	...........	-327.66
	763	0.1528	-3.20063E-001	1.81474E-005	0.00000E+000	-3.20000E-001	1.06522E-003	7	...........	-327.66
	764	0.153	-3.10025E-001	1.86739E-005	0.00000E+000	-3.10000E-001	1.11522E-003	7	...........	-327.66
	765	0.1532	-3.00063E-001	1.91888E-005	0.00000E+000	-3.00000E-001	1.16522E-003	7	...........	-327.66
	766	0.1534	-2.90013E-001	1.96936E-005	0.00000E+000	-2.90000E-001	1.29022E-003	7	...........	-327.66
	767	0.1536	-2.80050E-001	2.01847E-005	0.00000E+000	-2.80000E-001	1.09022E-003	7	...........	-327.66
	768	0.1538	-2.70038E-001	2.06670E-005	0.00000E+000	-2.70000E-001	1.16522E-003	7	...........	-327.66
	769	0.154	-2.59988E-001	2.11320E-005	0.00000E+000	-2.60000E-001	9.90224E-004	7	...........	-327.66
	770	0.1542	-2.49988E-001	2.15926E-005	0.00000E+000	-2.50000E-001	1.19022E-003	7	...........	-327.66
	771	0.1544	-2.39938E-001	2.20304E-005	0.00000E+000	-2.40000E-001	1.14022E-003	7	...........	-327.66
	772	0.1546	-2.29975E-001	2.24625E-005	0.00000E+000	-2.30000E-001	9.65224E-004	7	...........	-327.66
	773	0.1548	-2.19963E-001	2.28798E-005	0.00000E+000	-2.20000E-001	9.15224E-004	7	...........	-327.66
	774	0.155	-2.10013E-001	2.32728E-005	0.00000E+000	-2.10000E-001	1.11522E-003	7	...........	-327.66
	775	0.1552	-2.00075E-001	2.36631E-005	0.00000E+000	-2.00000E-001	1.04022E-003	7	...........	-327.66
	776	0.1554	-1.90025E-001	2.40397E-005	0.00000E+000	-1.90000E-001	1.06522E-003	7	...........	-327.66
	777	0.1556	-1.80050E-001	2.44020E-005	0.00000E+000	-1.80000E-001	1.06522E-003	7	...........	-327.66
	778	0.1558	-1.70013E-001	2.47548E-005	0.00000E+000	-1.70000E-001	1.19022E-003	7	...........	-327.66
	779	0.156	-1.60063E-001	2.50933E-005	0.00000E+000	-1.60000E-001	1.04022E-003	7	...........	-327.66
	780	0.1562	-1.50000E-001	2.54176E-005	0.00000E+000	-1.50000E-001	1.11522E-003	7	...........	-327.66
	781	0.1564	-1.40025E-001	2.57392E-005	0.00000E+000	-1.40000E-001	1.14022E-003	7	...........	-327.66
	782	0.1566	-1.30100E-001	2.60425E-005	0.00000E+000	-1.30000E-001	1.11522E-003	7	...........	-327.66
	783	0.1568	-1.20013E-001	2.63352E-005	0.00000E+000	-1.20000E-001	1.21522E-003	7	...........	-327.66
	784	0.157	-1.10063E-001	2.66195E-005	0.00000E+000	-1.10000E-001	1.16522E-003	7	...........	-327.66
	785	0.1572	-1.00075E-001	2.68913E-005	0.00000E+000	-1.00000E-001	1.04022E-003	7	...........	-327.66
	786	0.1574	-9.00002E-002	2.71576E-005	0.00000E+000	-9.00000E-002	1.16522E-003	7	...........	-327.66
	787	0.1576	-8.00627E-002	2.74126E-005	0.00000E+000	-8.00000E-002	1.11522E-003	7	...........	-327.66
	788	0.1578	-6.99877E-002	2.76699E-005	0.00000E+000	-7.00000E-002	1.04022E-003	7	...........	-327.66
	789	0.158	-6.00127E-002	2.79177E-005	0.00000E+000	-6.00000E-002	1.14022E-003	7	...........	-327.66
	790	0.1582	-5.00877E-002	2.81530E-005	0.00000E+000	-5.00000E-002	1.14022E-003	7	...........	-327.66
	791	0.1584	-4.00127E-002	2.83773E-005	0.00000E+000	-4.00000E-002	1.11522E-003	7	...........	-327.66
	792	0.1586	-2.99127E-002	2.86078E-005	0.00000E+000	-3.00000E-002	1.19022E-003	7	...........	-327.66
	793	0.1588	-2.00002E-002	2.88258E-005	0.00000E+000	-2.00000E-002	1.29022E-003	7	...........	-327.66
	794	0.159	-9.91269E-003	2.90396E-005	0.00000E+000	-1.00000E-002	1.29022E-003	7	...........	-327.66
	795	0.1592	-8.76875E-005	2.92391E-005	0.00000E+000	-1.49012E-008	1.06522E-003	7	...........	-327.66
	796	0.1594	9.98731E-003	2.94297E-005	0.00000E+000	9.99999E-003	1.14022E-003	7	...........	-327.66
	797	0.1596	1.99373E-002	2.96084E-005	0.00000E+000	2.00000E-002	1.29022E-003	7	...........	-327.66
	798	0.1598	2.99373E-002	2.97815E-005	0.00000E+000	3.00000E-002	1.19022E-003	7	...........	-327.66
	799	0.16	3.99623E-002	2.99470E-005	0.00000E+000	4.00000E-002	1.06522E-003	7	...........	-327.66
	800	0.1602	4.99998E-002	3.00985E-005	0.00000E+000	5.00000E-002	1.29022E-003	7	...........	-327.66
	801	0.1604	5.99748E-002	3.02428E-005	0.00000E+000	6.00000E-002	1.29022E-003	7	...........	-327.66
	802	0.1606	7.00123E-002	3.03773E-005	0.00000E+000	7.00000E-002	1.24022E-003	7	...........	-327.66
	803	0.1608	7.99123E-002	3.05028E-005	0.00000E+000	8.00000E-002	9.65224E-004	7	...........	-327.66
	804	0.161	9.00873E-002	3.06196E-005	0.00000E+000	9.00000E-002	9.65224E-004	7	...........	-327.66
	805	0.1612	9.99373E-002	3.07223E-005	0.00000E+000	1.00000E-001	1.01522E-003	7	...........	-327.66
	806	0.1614	1.09987E-001	3.08164E-005	0.00000E+000	1.10000E-001	1.04022E-003	7	...........	-327.66
	807	0.1616	1.19912E-001	3.08964E-005	0.00000E+000	1.20000E-001	1.14022E-003	7	...........	-327.66
	808	0.1618	1.30050E-001	3.09724E-005	0.00000E+000	1.30000E-001	1.24022E-003	7	...........	-327.66
	809	0.162	1.40062E-001	3.10344E-005	0.00000E+000	1.40000E-001	1.11522E-003	7	...........	-327.66
	810	0.1622	1.49962E-001	3.10909E-005	0.00000E+000	1.50000E-001	1.09022E-003	7	...........	-327.66
	811	0.1624	1.60025E-001	3.11359E-005	0.00000E+000	1.60000E-001	8.90224E-004	7	...........	-327.66
	812	0.1626	1.70212E-001	3.11727E-005	0.00000E+000	1.70000E-001	1.24022E-003	7	...........	-327.66
	813	0.1628	1.79975E-001	3.12034E-005	0.00000E+000	1.80000E-001	1.21522E-003	7	...........	-327.66
	814	0.163	1.90087E-001	3.12244E-005	0.00000E+000	1.90000E-001	1.19022E-003	7	...........	-327.66
	815	0.1632	1.99937E-001	3.12422E-005	0.00000E+000	2.00000E-001	1.04022E-003	7	...........	-327.66
	816	0.1634	2.09937E-001	3.12519E-005	0.00000E+000	2.10000E-001	1.04022E-003	7	...........	-327.66
	817	0.1636	2.20000E-001	3.12552E-005	0.00000E+000	2.20000E-001	1.14022E-003	7	...........	-327.66
	818	0.1638	2.29937E-001	3.12559E-005	0.00000E+000	2.30000E-001	9.15224E-004	7	...........	-327.66
	819	0.164	2.39912E-001	3.12532E-005	0.00000E+000	2.40000E-001	9.40224E-004	7	...........	-327.66
	820	0.1642	2.50025E-001	3.12447E-005	0.00000E+000	2.50000E-001	1.06522E-003	7	...........	-327.66
	821	0.1644	2.59950E-001	3.12237E-005	0.00000E+000	2.60000E-001	1.14022E-003	7	...........	-327.66
	822	0.1646	2.70075E-001	3.12104E-005	0.00000E+000	2.70000E-001	1.14022E-003	7	...........	-327.66
	823	0.1648	2.79937E-001	3.11892E-005	0.00000E+000	2.80000E-001	1.09022E-003	7	...........	-327.66
	824	0.165	2.89925E-001	3.11679E-005	0.00000E+000	2.90000E-001	1.16522E-003	7	...........	-327.66
	825	0.1652	2.99937E-001	3.11359E-005	0.00000E+000	3.00000E-001	1.24022E-003	7	...........	-327.66
	826	0.1654	3.09887E-001	3.11079E-005	0.00000E+000	3.10000E-001	1.11522E-003	7	...........	-327.66
	827	0.1656	3.19912E-001	3.10744E-005	0.00000E+000	3.20000E-001	1.09022E-003	7	...........	-327.66
	828	0.1658	3.30075E-001	3.10436E-005	0.00000E+000	3.30000E-001	1.06522E-003	7	...........	-327.66
	829	0.166	3.39937E-001	3.10076E-005	0.00000E+000	3.40000E-001	1.19022E-003	7	...........	-327.66
	830	0.1662	3.49950E-001	3.09676E-005	0.00000E+000	3.50000E-001	1.14022E-003	7	...........	-327.66
	831	0.1664	3.59875E-001	3.09289E-005	0.00000E+000	3.60000E-001	1.11522E-003	7	...........	-327.66
	832	0.1666	3.69987E-001	3.08909E-005	0.00000E+000	3.70000E-001	1.21522E-003	7	...........	-327.66
	833	0.1668	3.79962E-001	3.08491E-005	0.00000E+000	3.80000E-001	1.04022E-003	7	...........	-327.66
	834	0.167	3.89900E-001	3.08063E-005	0.00000E+000	3.90000E-001	1.01522E-003	7	...........	-327.66
	835	0.1672	3.99912E-001	3.07688E-005	0.00000E+000	4.00000E-001	1.19022E-003	7	...........	-327.66
	836	0.1674	4.09875E-001	3.07261E-005	0.00000E+000	4.10000E-001	1.06522E-003	7	...........	-327.66
	837	0.1676	4.19950E-001	3.06868E-005	0.00000E+000	4.20000E-001	1.14022E-003	7	...........	-327.66
	838	0.1678	4.29962E-001	3.06463E-005	0.00000E+000	4.30000E-001	1.09022E-003	7	...........	-327.66
	839	0.168	4.39937E-001	3.06071E-005	0.00000E+000	4.40000E-001	1.04022E-003	7	...........	-327.66
	840	0.1682	4.50112E-001	3.05713E-005	0.00000E+000	4.50000E-001	1.14022E-003	7	...........	-327.66
	841	0.1684	4.59900E-001	3.05296E-005	0.00000E+000	4.60000E-001	1.19022E-003	7	...........	-327.66
	842	0.1686	4.69925E-001	3.04898E-005	0.00000E+000	4.70000E-001	1.09022E-003	7	...........	-327.66
	843	0.1688	4.79937E-001	3.04583E-005	0.00000E+000	4.80000E-001	1.06522E-003	7	...........	-327.66
	844	0.169	4.89937E-001	3.04220E-005	0.00000E+000	4.90000E-001	1.21522E-003	7	...........	-327.66
	845	0.1692	4.99962E-001	3.03890E-005	0.00000E+000	5.00000E-001	1.01522E-003	7	...........	-327.66
	846	0.1694	5.09900E-001	3.03610E-005	0.00000E+000	5.10000E-001	1.14022E-003	7	...........	-327.66
	847	0.1696	5.19912E-001	3.03365E-005	0.00000E+000	5.20000E-001	1.11522E-003	7	...........	-327.66
	848	0.1698	5.29962E-001	3.03130E-005	0.00000E+000	5.30000E-001	1.14022E-003	7	...........	-327.66
	849	0.17	5.39975E-001	3.02880E-005	0.00000E+000	5.40000E-001	1.16522E-003	7	...........	-327.66
	850	0.1702	5.49887E-001	3.02675E-005	0.00000E+000	5.50000E-001	1.09022E-003	7	...........	-327.66
	851	0.1704	5.59862E-001	3.02495E-005	0.00000E+000	5.60000E-001	1.14022E-003	7	...........	-327.66
	852	0.1706	5.69950E-001	3.02418E-005	0.00000E+000	5.70000E-001	1.11522E-003	7	...........	-327.66
	853	0.1708	5.79950E-001	3.02338E-005	0.00000E+000	5.80000E-001	1.09022E-003	7	...........	-327.66
	854	0.171	5.89987E-001	3.02310E-005	0.00000E+000	5.90000E-001	1.06522E-003	7	...........	-327.66
	855	0.1712	5.99975E-001	3.02283E-005	0.00000E+000	6.00000E-001	1.06522E-003	7	...........	-327.66
CURVE4	TABLE
	Pt	T	Vf	Im	Vu	Sig	Ach	IERange	Over	Temp
	#	s	V vs. Ref.	A	V	V	V	#	bits	deg C
	856	0.1714	5.89962E-001	2.76309E-005	0.00000E+000	5.90000E-001	1.29022E-003	7	...........	-327.66
	857	0.1716	5.79987E-001	2.52138E-005	0.00000E+000	5.80000E-001	1.11522E-003	7	...........	-327.66
	858	0.1718	5.70025E-001	2.31976E-005	0.00000E+000	5.70000E-001	1.09022E-003	7	...........	-327.66
	859	0.172	5.59912E-001	2.14461E-005	0.00000E+000	5.60000E-001	1.11522E-003	7	...........	-327.66
	860	0.1722	5.50050E-001	1.98806E-005	0.00000E+000	5.50000E-001	1.11522E-003	7	...........	-327.66
	861	0.1724	5.39937E-001	1.84557E-005	0.00000E+000	5.40000E-001	1.14022E-003	7	...........	-327.66
	862	0.1726	5.29962E-001	1.71425E-005	0.00000E+000	5.30000E-001	1.06522E-003	7	...........	-327.66
	863	0.1728	5.19975E-001	1.59173E-005	0.00000E+000	5.20000E-001	1.19022E-003	7	...........	-327.66
	864	0.173	5.10025E-001	1.47672E-005	0.00000E+000	5.10000E-001	1.21522E-003	7	...........	-327.66
	865	0.1732	4.99975E-001	1.36818E-005	0.00000E+000	5.00000E-001	1.04022E-003	7	...........	-327.66
	866	0.1734	4.90087E-001	1.26466E-005	0.00000E+000	4.90000E-001	1.06522E-003	7	...........	-327.66
	867	0.1736	4.79912E-001	1.16587E-005	0.00000E+000	4.80000E-001	1.19022E-003	7	...........	-327.66
	868	0.1738	4.69962E-001	1.07156E-005	0.00000E+000	4.70000E-001	1.09022E-003	7	...........	-327.66
	869	0.174	4.59937E-001	9.80949E-006	0.00000E+000	4.60000E-001	9.90224E-004	7	...........	-327.66
	870	0.1742	4.49937E-001	8.93712E-006	0.00000E+000	4.50000E-001	1.14022E-003	7	...........	-327.66
	871	0.1744	4.39937E-001	8.09301E-006	0.00000E+000	4.40000E-001	1.14022E-003	7	...........	-327.66
	872	0.1746	4.29987E-001	7.28140E-006	0.00000E+000	4.30000E-001	1.16522E-003	7	...........	-327.66
	873	0.1748	4.19975E-001	6.49279E-006	0.00000E+000	4.20000E-001	1.11522E-003	7	...........	-327.66
	874	0.175	4.10012E-001	5.72793E-006	0.00000E+000	4.10000E-001	9.90224E-004	7	...........	-327.66
	875	0.1752	3.99962E-001	4.98683E-006	0.00000E+000	4.00000E-001	1.16522E-003	7	...........	-327.66
	876	0.1754	3.89962E-001	4.26649E-006	0.00000E+000	3.90000E-001	1.11522E-003	7	...........	-327.66
	877	0.1756	3.79987E-001	3.56764E-006	0.00000E+000	3.80000E-001	1.01522E-003	7	...........	-327.66
	878	0.1758	3.69987E-001	2.88805E-006	0.00000E+000	3.70000E-001	1.14022E-003	7	...........	-327.66
	879	0.176	3.59937E-001	2.22221E-006	0.00000E+000	3.60000E-001	1.19022E-003	7	...........	-327.66
	880	0.1762	3.50112E-001	1.57412E-006	0.00000E+000	3.50000E-001	1.29022E-003	7	...........	-327.66
	881	0.1764	3.40012E-001	9.40532E-007	0.00000E+000	3.40000E-001	9.65224E-004	7	...........	-327.66
	882	0.1766	3.30125E-001	3.24198E-007	0.00000E+000	3.30000E-001	8.90224E-004	7	...........	-327.66
	883	0.1768	3.20000E-001	-2.83385E-007	0.00000E+000	3.20000E-001	9.15224E-004	7	...........	-327.66
	884	0.177	3.10112E-001	-8.70965E-007	0.00000E+000	3.10000E-001	1.09022E-003	7	...........	-327.66
	885	0.1772	3.00025E-001	-1.45229E-006	0.00000E+000	3.00000E-001	9.40224E-004	7	...........	-327.66
	886	0.1774	2.90062E-001	-2.01987E-006	0.00000E+000	2.90000E-001	1.11522E-003	7	...........	-327.66
	887	0.1776	2.80000E-001	-2.57270E-006	0.00000E+000	2.80000E-001	1.24022E-003	7	...........	-327.66
	888	0.1778	2.70100E-001	-3.11802E-006	0.00000E+000	2.70000E-001	1.24022E-003	7	...........	-327.66
	889	0.178	2.60012E-001	-3.65484E-006	0.00000E+000	2.60000E-001	1.01522E-003	7	...........	-327.66
	890	0.1782	2.50225E-001	-4.17942E-006	0.00000E+000	2.50000E-001	1.11522E-003	7	...........	-327.66
	891	0.1784	2.40050E-001	-4.69324E-006	0.00000E+000	2.40000E-001	1.16522E-003	7	...........	-327.66
	892	0.1786	2.30062E-001	-5.19880E-006	0.00000E+000	2.30000E-001	1.06522E-003	7	...........	-327.66
	893	0.1788	2.20100E-001	-5.69662E-006	0.00000E+000	2.20000E-001	1.11522E-003	7	...........	-327.66
	894	0.179	2.10025E-001	-6.18944E-006	0.00000E+000	2.10000E-001	1.04022E-003	7	...........	-327.66
	895	0.1792	2.00137E-001	-6.67126E-006	0.00000E+000	2.00000E-001	1.14022E-003	7	...........	-327.66
	896	0.1794	1.90112E-001	-7.14607E-006	0.00000E+000	1.90000E-001	1.19022E-003	7	...........	-327.66
	897	0.1796	1.80150E-001	-7.61688E-006	0.00000E+000	1.80000E-001	1.09022E-003	7	...........	-327.66
	898	0.1798	1.70125E-001	-8.07670E-006	0.00000E+000	1.70000E-001	1.21522E-003	7	...........	-327.66
	899	0.18	1.60125E-001	-8.53601E-006	0.00000E+000	1.60000E-001	1.24022E-003	7	...........	-327.66
	900	0.1802	1.50200E-001	-8.98182E-006	0.00000E+000	1.50000E-001	1.11522E-003	7	...........	-327.66
