EXPLAIN
TAG	CV
TITLE	LABEL	CV50000	Test Identifier
DATE	LABEL	5/9/2025	Date
TIME	LABEL	16:23:53	Time
NOTES	NOTES	1	Notes...
	
PSTAT	PSTAT	REF600P-43058	Potentiostat
VINIT	POTEN	0.00000E+000	T	Initial E (V)
VLIMIT1	POTEN	-9.00000E-001	F	Scan Limit 1 (V)
VLIMIT2	POTEN	6.00000E-001	F	Scan Limit 2 (V)
VFINAL	POTEN	0.00000E+000	T	Final E (V)
SCANRATE	QUANT	4.99999E+004	Scan Rate (mV/s)
STEPSIZE	QUANT	1.00000E+001	Step Size (mV)
CYCLES	IQUANT	3	Cycles (#)
IMODE	SELECTOR	1	I/E Range Mode
IRANGE	QUANT	1.00000E-002	Max Current (mA)
AREA	QUANT	1.00000E+000	Sample Area (cm^2)
EQDELAY	QUANT	5.00000E+000	Equil. Time (s)
IRCOMP	SELECTOR	0	IRComp
PFCOR	QUANT	5.00000E+001	PF Corr. (ohm)
SAMPLINGMODE	SELECTOR	2	Sampling Mode
EOC	QUANT	0.3165924	Open Circuit (V)
ELECTRODETYPE	SELECTOR	0	Electrode Type
STRIPPING	TOGGLE	F	Used for Stripping
SEQUENCER	TOGGLE	TRUE	Run as Sequence
PSTATMODEL	IQUANT	7	Pstat Model
PSTATSECTION	LABEL	REF600P-43058	Pstat Section
PSTATSERIALNO	LABEL	43058	Pstat Serial Number
CTRLMODE	IQUANT	1	Control Mode
ELECTROMETER	IQUANT	0	RE=0 or CS=1
IESTAB	IQUANT	2	I/E Stability
CASPEED	IQUANT	4	Control Amp Speed
CONVENTION	IQUANT	1	Current Convention
ICHRANGE	IQUANT	2	Ich Range
ICHRANGEMODE	TOGGLE	F	Ich Auto Range
ICHOFFSETENABLE	TOGGLE	F	Ich Offset Enable
ICHOFFSET	QUANT	0	Ich Offset (V)
ICHFILTER	IQUANT	1	Ich Filter
VCHRANGE	IQUANT	2	Vch Range
VCHRANGEMODE	TOGGLE	F	Vch Auto Range
VCHOFFSETENABLE	TOGGLE	F	Vch Offset Enable
VCHOFFSET	QUANT	0	Vch Offset (V)
VCHFILTER	IQUANT	1	Vch Filter
ACHRANGE	IQUANT	2	Ach Range
ACHOFFSETENABLE	TOGGLE	F	Ach Offset Enable
ACHOFFSET	QUANT	0	Ach Offset (V)
ACHFILTER	IQUANT	1	Ach Filter
IERANGELOWERLIMIT	IQUANT	1	I/E Range Lower Limit
IERANGEMODE	TOGGLE	F	I/E AutoRange
IERANGE	IQUANT	7	I/E Range
POSFEEDENABLE	TOGGLE	F	Positive Feedback IR Comp
POSFEEDRESISTANCE	QUANT	0	Positive Feedback Resistance (ohm)
ACHSELECT	IQUANT	4	Ach Select
SENSECABLEID	IQUANT	7	Sense Cable ID
PWRCABLEID	IQUANT	7	Power Cable ID
DCCALDATE	LABEL	5/8/2025	DC Calibration Date
ACCALDATE	LABEL	5/8/2025	AC Calibration Date
THERMOSELECT	IQUANT	1	Thermo Select
FRAMEWORKVERSION	LABEL	7.10.4	Framework Version
INSTRUMENTVERSION	LABEL	5.01	Instrument Version
COMMVERSION	LABEL	5.10	Communications Version
CPUPLDVERSION	LABEL	6.00	CPU PLD Version
CTRLPLDVERSION	LABEL	3.21	CTRL PLD Version
PSTATPLDVERSION	LABEL	0.00	PSTAT PLD Version
CURVE1	TABLE
	Pt	T	Vf	Im	Vu	Sig	Ach	IERange	Over	Temp
	#	s	V vs. Ref.	A	V	V	V	#	bits	deg C
	0	0.0002	3.16662E-001	1.06554E-008	0.00000E+000	3.16600E-001	1.06522E-003	7	...........	-327.66
	1	0.0004	3.06700E-001	-6.51185E-007	0.00000E+000	3.06600E-001	9.15224E-004	7	...........	-327.66
	2	0.0006	2.96725E-001	-8.70215E-007	0.00000E+000	2.96600E-001	8.65224E-004	7	...........	-327.66
	3	0.0008	2.86625E-001	-9.25472E-007	0.00000E+000	2.86600E-001	9.90224E-004	7	...........	-327.66
	4	0.001	2.76662E-001	-9.42475E-007	0.00000E+000	2.76600E-001	1.11522E-003	7	...........	-327.66
	5	0.0012	2.66662E-001	-9.53976E-007	0.00000E+000	2.66600E-001	1.16522E-003	7	...........	-327.66
	6	0.0014	2.56750E-001	-9.59227E-007	0.00000E+000	2.56600E-001	1.09022E-003	7	...........	-327.66
	7	0.0016	2.46675E-001	-9.67228E-007	0.00000E+000	2.46600E-001	1.06522E-003	7	...........	-327.66
	8	0.0018	2.36700E-001	-9.77479E-007	0.00000E+000	2.36600E-001	1.11522E-003	7	...........	-327.66
	9	0.002	2.26687E-001	-9.82480E-007	0.00000E+000	2.26600E-001	1.14022E-003	7	...........	-327.66
	10	0.0022	2.16712E-001	-9.90481E-007	0.00000E+000	2.16600E-001	1.21522E-003	7	...........	-327.66
	11	0.0024	2.06737E-001	-1.00173E-006	0.00000E+000	2.06600E-001	1.16522E-003	7	...........	-327.66
	12	0.0026	1.96700E-001	-1.01048E-006	0.00000E+000	1.96600E-001	1.01522E-003	7	...........	-327.66
	13	0.0028	1.86662E-001	-1.01748E-006	0.00000E+000	1.86600E-001	1.11522E-003	7	...........	-327.66
	14	0.003	1.76737E-001	-1.02749E-006	0.00000E+000	1.76600E-001	9.90224E-004	7	...........	-327.66
	15	0.0032	1.66725E-001	-1.03424E-006	0.00000E+000	1.66600E-001	1.04022E-003	7	...........	-327.66
	16	0.0034	1.56712E-001	-1.04749E-006	0.00000E+000	1.56600E-001	1.16522E-003	7	...........	-327.66
	17	0.0036	1.46675E-001	-1.05874E-006	0.00000E+000	1.46600E-001	1.21522E-003	7	...........	-327.66
	18	0.0038	1.36750E-001	-1.06699E-006	0.00000E+000	1.36600E-001	1.06522E-003	7	...........	-327.66
	19	0.004	1.26725E-001	-1.07724E-006	0.00000E+000	1.26600E-001	1.09022E-003	7	...........	-327.66
	20	0.0042	1.16775E-001	-1.08924E-006	0.00000E+000	1.16600E-001	1.11522E-003	7	...........	-327.66
	21	0.0044	1.06687E-001	-1.10300E-006	0.00000E+000	1.06600E-001	1.21522E-003	7	...........	-327.66
	22	0.0046	9.67123E-002	-1.11175E-006	0.00000E+000	9.66000E-002	1.09022E-003	7	...........	-327.66
	23	0.0048	8.67373E-002	-1.12450E-006	0.00000E+000	8.66000E-002	1.11522E-003	7	...........	-327.66
	24	0.005	7.67123E-002	-1.13800E-006	0.00000E+000	7.66000E-002	1.21522E-003	7	...........	-327.66
	25	0.0052	6.66748E-002	-1.14850E-006	0.00000E+000	6.66000E-002	1.21522E-003	7	...........	-327.66
	26	0.0054	5.66998E-002	-1.16250E-006	0.00000E+000	5.66000E-002	1.11522E-003	7	...........	-327.66
	27	0.0056	4.66373E-002	-1.17526E-006	0.00000E+000	4.66000E-002	1.16522E-003	7	...........	-327.66
	28	0.0058	3.66748E-002	-1.18826E-006	0.00000E+000	3.66000E-002	1.01522E-003	7	...........	-327.66
	29	0.006	2.67623E-002	-1.20226E-006	0.00000E+000	2.66000E-002	1.06522E-003	7	...........	-327.66
	30	0.0062	1.67623E-002	-1.21426E-006	0.00000E+000	1.66000E-002	9.90224E-004	7	...........	-327.66
	31	0.0064	6.66231E-003	-1.22801E-006	0.00000E+000	6.59999E-003	1.01522E-003	7	...........	-327.66
	32	0.0066	-3.31269E-003	-1.24252E-006	0.00000E+000	-3.40001E-003	1.19022E-003	7	...........	-327.66
	33	0.0068	-1.33252E-002	-1.25702E-006	0.00000E+000	-1.34000E-002	9.40224E-004	7	...........	-327.66
	34	0.007	-2.32502E-002	-1.26602E-006	0.00000E+000	-2.34000E-002	1.04022E-003	7	...........	-327.66
	35	0.0072	-3.34752E-002	-1.28202E-006	0.00000E+000	-3.34000E-002	9.65224E-004	7	...........	-327.66
	36	0.0074	-4.32752E-002	-1.29402E-006	0.00000E+000	-4.34000E-002	1.06522E-003	7	...........	-327.66
	37	0.0076	-5.33252E-002	-1.30727E-006	0.00000E+000	-5.34000E-002	1.11522E-003	7	...........	-327.66
	38	0.0078	-6.32377E-002	-1.32103E-006	0.00000E+000	-6.34000E-002	1.06522E-003	7	...........	-327.66
	39	0.008	-7.33252E-002	-1.33253E-006	0.00000E+000	-7.34000E-002	1.09022E-003	7	...........	-327.66
	40	0.0082	-8.32627E-002	-1.34578E-006	0.00000E+000	-8.34000E-002	1.01522E-003	7	...........	-327.66
	41	0.0084	-9.33252E-002	-1.35903E-006	0.00000E+000	-9.34000E-002	9.90224E-004	7	...........	-327.66
	42	0.0086	-1.03275E-001	-1.37003E-006	0.00000E+000	-1.03400E-001	9.65224E-004	7	...........	-327.66
	43	0.0088	-1.13363E-001	-1.38178E-006	0.00000E+000	-1.13400E-001	1.04022E-003	7	...........	-327.66
	44	0.009	-1.23300E-001	-1.39254E-006	0.00000E+000	-1.23400E-001	1.14022E-003	7	...........	-327.66
	45	0.0092	-1.33325E-001	-1.40304E-006	0.00000E+000	-1.33400E-001	1.19022E-003	7	...........	-327.66
	46	0.0094	-1.43275E-001	-1.41179E-006	0.00000E+000	-1.43400E-001	1.06522E-003	7	...........	-327.66
	47	0.0096	-1.53388E-001	-1.42354E-006	0.00000E+000	-1.53400E-001	1.06522E-003	7	...........	-327.66
	48	0.0098	-1.63313E-001	-1.43179E-006	0.00000E+000	-1.63400E-001	1.21522E-003	7	...........	-327.66
	49	0.01	-1.73338E-001	-1.43879E-006	0.00000E+000	-1.73400E-001	1.06522E-003	7	...........	-327.66
	50	0.0102	-1.83288E-001	-1.44954E-006	0.00000E+000	-1.83400E-001	1.14022E-003	7	...........	-327.66
	51	0.0104	-1.93313E-001	-1.45854E-006	0.00000E+000	-1.93400E-001	1.11522E-003	7	...........	-327.66
	52	0.0106	-2.03325E-001	-1.46180E-006	0.00000E+000	-2.03400E-001	1.21522E-003	7	...........	-327.66
	53	0.0108	-2.13300E-001	-1.46780E-006	0.00000E+000	-2.13400E-001	1.09022E-003	7	...........	-327.66
	54	0.011	-2.23263E-001	-1.47655E-006	0.00000E+000	-2.23400E-001	1.14022E-003	7	...........	-327.66
	55	0.0112	-2.33300E-001	-1.48130E-006	0.00000E+000	-2.33400E-001	1.11522E-003	7	...........	-327.66
	56	0.0114	-2.43288E-001	-1.48655E-006	0.00000E+000	-2.43400E-001	1.06522E-003	7	...........	-327.66
	57	0.0116	-2.53338E-001	-1.48880E-006	0.00000E+000	-2.53400E-001	1.01522E-003	7	...........	-327.66
	58	0.0118	-2.63238E-001	-1.49205E-006	0.00000E+000	-2.63400E-001	9.90224E-004	7	...........	-327.66
	59	0.012	-2.73275E-001	-1.49805E-006	0.00000E+000	-2.73400E-001	1.11522E-003	7	...........	-327.66
	60	0.0122	-2.83263E-001	-1.50155E-006	0.00000E+000	-2.83400E-001	9.90224E-004	7	...........	-327.66
	61	0.0124	-2.93163E-001	-1.50355E-006	0.00000E+000	-2.93400E-001	9.90224E-004	7	...........	-327.66
	62	0.0126	-3.03250E-001	-1.50705E-006	0.00000E+000	-3.03400E-001	1.11522E-003	7	...........	-327.66
	63	0.0128	-3.13288E-001	-1.50755E-006	0.00000E+000	-3.13400E-001	1.04022E-003	7	...........	-327.66
	64	0.013	-3.23250E-001	-1.51005E-006	0.00000E+000	-3.23400E-001	1.09022E-003	7	...........	-327.66
	65	0.0132	-3.33325E-001	-1.51230E-006	0.00000E+000	-3.33400E-001	1.21522E-003	7	...........	-327.66
	66	0.0134	-3.43275E-001	-1.51555E-006	0.00000E+000	-3.43400E-001	1.04022E-003	7	...........	-327.66
	67	0.0136	-3.53375E-001	-1.51855E-006	0.00000E+000	-3.53400E-001	1.06522E-003	7	...........	-327.66
	68	0.0138	-3.63263E-001	-1.52055E-006	0.00000E+000	-3.63400E-001	1.04022E-003	7	...........	-327.66
	69	0.014	-3.73275E-001	-1.52105E-006	0.00000E+000	-3.73400E-001	1.11522E-003	7	...........	-327.66
	70	0.0142	-3.83250E-001	-1.52380E-006	0.00000E+000	-3.83400E-001	1.14022E-003	7	...........	-327.66
	71	0.0144	-3.93338E-001	-1.52405E-006	0.00000E+000	-3.93400E-001	1.06522E-003	7	...........	-327.66
	72	0.0146	-4.03263E-001	-1.52805E-006	0.00000E+000	-4.03400E-001	1.11522E-003	7	...........	-327.66
	73	0.0148	-4.13288E-001	-1.52980E-006	0.00000E+000	-4.13400E-001	9.65224E-004	7	...........	-327.66
	74	0.015	-4.23213E-001	-1.53105E-006	0.00000E+000	-4.23400E-001	1.09022E-003	7	...........	-327.66
	75	0.0152	-4.33275E-001	-1.53105E-006	0.00000E+000	-4.33400E-001	1.09022E-003	7	...........	-327.66
	76	0.0154	-4.43263E-001	-1.53456E-006	0.00000E+000	-4.43400E-001	1.06522E-003	7	...........	-327.66
	77	0.0156	-4.53288E-001	-1.53331E-006	0.00000E+000	-4.53400E-001	1.06522E-003	7	...........	-327.66
	78	0.0158	-4.63225E-001	-1.53781E-006	0.00000E+000	-4.63400E-001	1.11522E-003	7	...........	-327.66
	79	0.016	-4.73300E-001	-1.53906E-006	0.00000E+000	-4.73400E-001	1.04022E-003	7	...........	-327.66
	80	0.0162	-4.83288E-001	-1.53506E-006	0.00000E+000	-4.83400E-001	9.90224E-004	7	...........	-327.66
	81	0.0164	-4.93213E-001	-1.53756E-006	0.00000E+000	-4.93400E-001	9.40224E-004	7	...........	-327.66
	82	0.0166	-5.03225E-001	-1.53856E-006	0.00000E+000	-5.03400E-001	1.29022E-003	7	...........	-327.66
	83	0.0168	-5.13288E-001	-1.53881E-006	0.00000E+000	-5.13400E-001	1.21522E-003	7	...........	-327.66
	84	0.017	-5.23250E-001	-1.53481E-006	0.00000E+000	-5.23400E-001	1.21522E-003	7	...........	-327.66
	85	0.0172	-5.33288E-001	-1.53881E-006	0.00000E+000	-5.33400E-001	1.11522E-003	7	...........	-327.66
	86	0.0174	-5.43275E-001	-1.53981E-006	0.00000E+000	-5.43400E-001	1.09022E-003	7	...........	-327.66
	87	0.0176	-5.53263E-001	-1.54106E-006	0.00000E+000	-5.53400E-001	1.01522E-003	7	...........	-327.66
	88	0.0178	-5.63275E-001	-1.54306E-006	0.00000E+000	-5.63400E-001	9.40224E-004	7	...........	-327.66
	89	0.018	-5.73388E-001	-1.54606E-006	0.00000E+000	-5.73400E-001	1.16522E-003	7	...........	-327.66
	90	0.0182	-5.83225E-001	-1.54806E-006	0.00000E+000	-5.83400E-001	1.11522E-003	7	...........	-327.66
	91	0.0184	-5.93138E-001	-1.54981E-006	0.00000E+000	-5.93400E-001	1.14022E-003	7	...........	-327.66
	92	0.0186	-6.03175E-001	-1.55456E-006	0.00000E+000	-6.03400E-001	9.40224E-004	7	...........	-327.66
	93	0.0188	-6.13325E-001	-1.56106E-006	0.00000E+000	-6.13400E-001	1.04022E-003	7	...........	-327.66
	94	0.019	-6.23238E-001	-1.56681E-006	0.00000E+000	-6.23400E-001	1.09022E-003	7	...........	-327.66
	95	0.0192	-6.33225E-001	-1.57031E-006	0.00000E+000	-6.33400E-001	1.19022E-003	7	...........	-327.66
	96	0.0194	-6.43313E-001	-1.57381E-006	0.00000E+000	-6.43400E-001	1.04022E-003	7	...........	-327.66
	97	0.0196	-6.53238E-001	-1.58106E-006	0.00000E+000	-6.53400E-001	1.04022E-003	7	...........	-327.66
	98	0.0198	-6.63250E-001	-1.58281E-006	0.00000E+000	-6.63400E-001	9.65224E-004	7	...........	-327.66
	99	0.02	-6.73225E-001	-1.59031E-006	0.00000E+000	-6.73400E-001	1.06522E-003	7	...........	-327.66
	100	0.0202	-6.83250E-001	-1.59231E-006	0.00000E+000	-6.83400E-001	8.65224E-004	7	...........	-327.66
	101	0.0204	-6.93300E-001	-1.59506E-006	0.00000E+000	-6.93400E-001	1.16522E-003	7	...........	-327.66
	102	0.0206	-7.03288E-001	-1.59806E-006	0.00000E+000	-7.03400E-001	1.11522E-003	7	...........	-327.66
	103	0.0208	-7.13250E-001	-1.60131E-006	0.00000E+000	-7.13400E-001	1.01522E-003	7	...........	-327.66
	104	0.021	-7.23250E-001	-1.60631E-006	0.00000E+000	-7.23400E-001	1.01522E-003	7	...........	-327.66
	105	0.0212	-7.33175E-001	-1.60631E-006	0.00000E+000	-7.33400E-001	1.11522E-003	7	...........	-327.66
	106	0.0214	-7.43238E-001	-1.60757E-006	0.00000E+000	-7.43400E-001	1.06522E-003	7	...........	-327.66
	107	0.0216	-7.53313E-001	-1.60932E-006	0.00000E+000	-7.53400E-001	1.04022E-003	7	...........	-327.66
	108	0.0218	-7.63350E-001	-1.60531E-006	0.00000E+000	-7.63400E-001	1.04022E-003	7	...........	-327.66
	109	0.022	-7.73225E-001	-1.59906E-006	0.00000E+000	-7.73400E-001	1.14022E-003	7	...........	-327.66
	110	0.0222	-7.83188E-001	-1.59381E-006	0.00000E+000	-7.83400E-001	1.01522E-003	7	...........	-327.66
	111	0.0224	-7.93300E-001	-1.58181E-006	0.00000E+000	-7.93400E-001	1.09022E-003	7	...........	-327.66
	112	0.0226	-8.03263E-001	-1.56356E-006	0.00000E+000	-8.03400E-001	1.11522E-003	7	...........	-327.66
	113	0.0228	-8.13200E-001	-1.53956E-006	0.00000E+000	-8.13400E-001	9.90224E-004	7	...........	-327.66
	114	0.023	-8.23213E-001	-1.50305E-006	0.00000E+000	-8.23400E-001	1.09022E-003	7	...........	-327.66
	115	0.0232	-8.33200E-001	-1.45579E-006	0.00000E+000	-8.33400E-001	1.14022E-003	7	...........	-327.66
	116	0.0234	-8.43225E-001	-1.39554E-006	0.00000E+000	-8.43400E-001	1.01522E-003	7	...........	-327.66
	117	0.0236	-8.53263E-001	-1.32103E-006	0.00000E+000	-8.53400E-001	1.09022E-003	7	...........	-327.66
	118	0.0238	-8.63225E-001	-1.23501E-006	0.00000E+000	-8.63400E-001	1.29022E-003	7	...........	-327.66
	119	0.024	-8.73300E-001	-1.14125E-006	0.00000E+000	-8.73400E-001	9.40224E-004	7	...........	-327.66
	120	0.0242	-8.83263E-001	-1.04699E-006	0.00000E+000	-8.83400E-001	1.04022E-003	7	...........	-327.66
	121	0.0244	-8.93238E-001	-9.51976E-007	0.00000E+000	-8.93400E-001	1.06522E-003	7	...........	-327.66
	122	0.0246	-9.03200E-001	-8.60963E-007	0.00000E+000	-9.03400E-001	1.01522E-003	7	...........	-327.66
	123	0.0248	-8.93288E-001	-4.12402E-007	0.00000E+000	-8.93400E-001	1.11522E-003	7	...........	-327.66
	124	0.025	-8.83288E-001	-1.48366E-007	0.00000E+000	-8.83400E-001	1.14022E-003	7	...........	-327.66
	125	0.0252	-8.73275E-001	3.79091E-008	0.00000E+000	-8.73400E-001	1.14022E-003	7	...........	-327.66
	126	0.0254	-8.63250E-001	1.92930E-007	0.00000E+000	-8.63400E-001	1.11522E-003	7	...........	-327.66
	127	0.0256	-8.53263E-001	3.30199E-007	0.00000E+000	-8.53400E-001	9.90224E-004	7	...........	-327.66
	128	0.0258	-8.43263E-001	4.53716E-007	0.00000E+000	-8.43400E-001	1.04022E-003	7	...........	-327.66
	129	0.026	-8.33225E-001	5.70732E-007	0.00000E+000	-8.33400E-001	1.21522E-003	7	...........	-327.66
	130	0.0262	-8.23263E-001	6.76996E-007	0.00000E+000	-8.23400E-001	1.09022E-003	7	...........	-327.66
	131	0.0264	-8.13263E-001	7.71759E-007	0.00000E+000	-8.13400E-001	1.14022E-003	7	...........	-327.66
	132	0.0266	-8.03238E-001	8.60771E-007	0.00000E+000	-8.03400E-001	1.04022E-003	7	...........	-327.66
	133	0.0268	-7.93313E-001	9.35031E-007	0.00000E+000	-7.93400E-001	1.21522E-003	7	...........	-327.66
	134	0.027	-7.83238E-001	9.95039E-007	0.00000E+000	-7.83400E-001	9.65224E-004	7	...........	-327.66
	135	0.0272	-7.73213E-001	1.04980E-006	0.00000E+000	-7.73400E-001	1.01522E-003	7	...........	-327.66
	136	0.0274	-7.63363E-001	1.08980E-006	0.00000E+000	-7.63400E-001	1.06522E-003	7	...........	-327.66
	137	0.0276	-7.53350E-001	1.12331E-006	0.00000E+000	-7.53400E-001	1.16522E-003	7	...........	-327.66
	138	0.0278	-7.43263E-001	1.14606E-006	0.00000E+000	-7.43400E-001	1.06522E-003	7	...........	-327.66
	139	0.028	-7.33238E-001	1.16681E-006	0.00000E+000	-7.33400E-001	1.11522E-003	7	...........	-327.66
	140	0.0282	-7.23238E-001	1.17931E-006	0.00000E+000	-7.23400E-001	1.14022E-003	7	...........	-327.66
	141	0.0284	-7.13175E-001	1.18957E-006	0.00000E+000	-7.13400E-001	1.11522E-003	7	...........	-327.66
	142	0.0286	-7.03213E-001	1.19682E-006	0.00000E+000	-7.03400E-001	1.01522E-003	7	...........	-327.66
	143	0.0288	-6.93288E-001	1.20207E-006	0.00000E+000	-6.93400E-001	1.14022E-003	7	...........	-327.66
	144	0.029	-6.83300E-001	1.20782E-006	0.00000E+000	-6.83400E-001	1.14022E-003	7	...........	-327.66
	145	0.0292	-6.73275E-001	1.21007E-006	0.00000E+000	-6.73400E-001	1.06522E-003	7	...........	-327.66
	146	0.0294	-6.63250E-001	1.21657E-006	0.00000E+000	-6.63400E-001	1.04022E-003	7	...........	-327.66
	147	0.0296	-6.53138E-001	1.21682E-006	0.00000E+000	-6.53400E-001	1.14022E-003	7	...........	-327.66
	148	0.0298	-6.43288E-001	1.22307E-006	0.00000E+000	-6.43400E-001	1.01522E-003	7	...........	-327.66
	149	0.03	-6.33250E-001	1.22707E-006	0.00000E+000	-6.33400E-001	1.14022E-003	7	...........	-327.66
	150	0.0302	-6.23163E-001	1.22932E-006	0.00000E+000	-6.23400E-001	1.24022E-003	7	...........	-327.66
	151	0.0304	-6.13238E-001	1.22932E-006	0.00000E+000	-6.13400E-001	1.06522E-003	7	...........	-327.66
	152	0.0306	-6.03325E-001	1.23732E-006	0.00000E+000	-6.03400E-001	1.06522E-003	7	...........	-327.66
	153	0.0308	-5.93250E-001	1.23882E-006	0.00000E+000	-5.93400E-001	1.06522E-003	7	...........	-327.66
	154	0.031	-5.83263E-001	1.24057E-006	0.00000E+000	-5.83400E-001	1.14022E-003	7	...........	-327.66
	155	0.0312	-5.73200E-001	1.24457E-006	0.00000E+000	-5.73400E-001	1.14022E-003	7	...........	-327.66
	156	0.0314	-5.63263E-001	1.24407E-006	0.00000E+000	-5.63400E-001	1.06522E-003	7	...........	-327.66
	157	0.0316	-5.53275E-001	1.24657E-006	0.00000E+000	-5.53400E-001	1.29022E-003	7	...........	-327.66
	158	0.0318	-5.43288E-001	1.24582E-006	0.00000E+000	-5.43400E-001	1.09022E-003	7	...........	-327.66
	159	0.032	-5.33288E-001	1.24807E-006	0.00000E+000	-5.33400E-001	1.11522E-003	7	...........	-327.66
	160	0.0322	-5.23263E-001	1.24857E-006	0.00000E+000	-5.23400E-001	1.11522E-003	7	...........	-327.66
	161	0.0324	-5.13263E-001	1.24932E-006	0.00000E+000	-5.13400E-001	1.04022E-003	7	...........	-327.66
	162	0.0326	-5.03288E-001	1.25357E-006	0.00000E+000	-5.03400E-001	1.14022E-003	7	...........	-327.66
	163	0.0328	-4.93263E-001	1.25583E-006	0.00000E+000	-4.93400E-001	1.01522E-003	7	...........	-327.66
	164	0.033	-4.83275E-001	1.25883E-006	0.00000E+000	-4.83400E-001	1.21522E-003	7	...........	-327.66
	165	0.0332	-4.73250E-001	1.26033E-006	0.00000E+000	-4.73400E-001	1.04022E-003	7	...........	-327.66
	166	0.0334	-4.63238E-001	1.26583E-006	0.00000E+000	-4.63400E-001	1.01522E-003	7	...........	-327.66
	167	0.0336	-4.53325E-001	1.26933E-006	0.00000E+000	-4.53400E-001	1.09022E-003	7	...........	-327.66
	168	0.0338	-4.43263E-001	1.27458E-006	0.00000E+000	-4.43400E-001	1.09022E-003	7	...........	-327.66
	169	0.034	-4.33300E-001	1.28258E-006	0.00000E+000	-4.33400E-001	1.04022E-003	7	...........	-327.66
	170	0.0342	-4.23138E-001	1.28658E-006	0.00000E+000	-4.23400E-001	1.09022E-003	7	...........	-327.66
	171	0.0344	-4.13288E-001	1.29283E-006	0.00000E+000	-4.13400E-001	9.65224E-004	7	...........	-327.66
	172	0.0346	-4.03275E-001	1.30133E-006	0.00000E+000	-4.03400E-001	1.04022E-003	7	...........	-327.66
	173	0.0348	-3.93338E-001	1.31108E-006	0.00000E+000	-3.93400E-001	1.09022E-003	7	...........	-327.66
	174	0.035	-3.83313E-001	1.31883E-006	0.00000E+000	-3.83400E-001	1.09022E-003	7	...........	-327.66
	175	0.0352	-3.73238E-001	1.32433E-006	0.00000E+000	-3.73400E-001	1.16522E-003	7	...........	-327.66
	176	0.0354	-3.63263E-001	1.33484E-006	0.00000E+000	-3.63400E-001	1.16522E-003	7	...........	-327.66
	177	0.0356	-3.53275E-001	1.34034E-006	0.00000E+000	-3.53400E-001	9.90224E-004	7	...........	-327.66
	178	0.0358	-3.43263E-001	1.34684E-006	0.00000E+000	-3.43400E-001	1.01522E-003	7	...........	-327.66
	179	0.036	-3.33288E-001	1.35384E-006	0.00000E+000	-3.33400E-001	1.01522E-003	7	...........	-327.66
	180	0.0362	-3.23325E-001	1.36159E-006	0.00000E+000	-3.23400E-001	1.01522E-003	7	...........	-327.66
	181	0.0364	-3.13288E-001	1.36959E-006	0.00000E+000	-3.13400E-001	1.09022E-003	7	...........	-327.66
	182	0.0366	-3.03263E-001	1.37334E-006	0.00000E+000	-3.03400E-001	1.04022E-003	7	...........	-327.66
	183	0.0368	-2.93238E-001	1.38284E-006	0.00000E+000	-2.93400E-001	1.29022E-003	7	...........	-327.66
	184	0.037	-2.83338E-001	1.38334E-006	0.00000E+000	-2.83400E-001	1.14022E-003	7	...........	-327.66
	185	0.0372	-2.73275E-001	1.38884E-006	0.00000E+000	-2.73400E-001	1.19022E-003	7	...........	-327.66
	186	0.0374	-2.63213E-001	1.39309E-006	0.00000E+000	-2.63400E-001	1.14022E-003	7	...........	-327.66
	187	0.0376	-2.53275E-001	1.39759E-006	0.00000E+000	-2.53400E-001	1.19022E-003	7	...........	-327.66
	188	0.0378	-2.43275E-001	1.40159E-006	0.00000E+000	-2.43400E-001	1.21522E-003	7	...........	-327.66
	189	0.038	-2.33238E-001	1.40485E-006	0.00000E+000	-2.33400E-001	9.15224E-004	7	...........	-327.66
	190	0.0382	-2.23250E-001	1.41060E-006	0.00000E+000	-2.23400E-001	1.01522E-003	7	...........	-327.66
	191	0.0384	-2.13300E-001	1.41110E-006	0.00000E+000	-2.13400E-001	1.09022E-003	7	...........	-327.66
	192	0.0386	-2.03338E-001	1.41385E-006	0.00000E+000	-2.03400E-001	1.06522E-003	7	...........	-327.66
	193	0.0388	-1.93288E-001	1.41960E-006	0.00000E+000	-1.93400E-001	1.14022E-003	7	...........	-327.66
	194	0.039	-1.83263E-001	1.42285E-006	0.00000E+000	-1.83400E-001	1.09022E-003	7	...........	-327.66
	195	0.0392	-1.73325E-001	1.42210E-006	0.00000E+000	-1.73400E-001	1.01522E-003	7	...........	-327.66
	196	0.0394	-1.63288E-001	1.42760E-006	0.00000E+000	-1.63400E-001	1.04022E-003	7	...........	-327.66
	197	0.0396	-1.53300E-001	1.42685E-006	0.00000E+000	-1.53400E-001	1.09022E-003	7	...........	-327.66
	198	0.0398	-1.43238E-001	1.42935E-006	0.00000E+000	-1.43400E-001	1.16522E-003	7	...........	-327.66
	199	0.04	-1.33338E-001	1.42860E-006	0.00000E+000	-1.33400E-001	1.11522E-003	7	...........	-327.66
	200	0.0402	-1.23413E-001	1.42885E-006	0.00000E+000	-1.23400E-001	1.01522E-003	7	...........	-327.66
	201	0.0404	-1.13238E-001	1.43460E-006	0.00000E+000	-1.13400E-001	1.11522E-003	7	...........	-327.66
	202	0.0406	-1.03263E-001	1.43510E-006	0.00000E+000	-1.03400E-001	1.04022E-003	7	...........	-327.66
	203	0.0408	-9.33252E-002	1.43185E-006	0.00000E+000	-9.34000E-002	1.04022E-003	7	...........	-327.66
	204	0.041	-8.32627E-002	1.43210E-006	0.00000E+000	-8.34000E-002	1.06522E-003	7	...........	-327.66
	205	0.0412	-7.33127E-002	1.43385E-006	0.00000E+000	-7.34000E-002	9.15224E-004	7	...........	-327.66
	206	0.0414	-6.32877E-002	1.43410E-006	0.00000E+000	-6.34000E-002	9.65224E-004	7	...........	-327.66
	207	0.0416	-5.32877E-002	1.43335E-006	0.00000E+000	-5.34000E-002	9.65224E-004	7	...........	-327.66
	208	0.0418	-4.33377E-002	1.43160E-006	0.00000E+000	-4.34000E-002	1.06522E-003	7	...........	-327.66
	209	0.042	-3.32752E-002	1.43210E-006	0.00000E+000	-3.34000E-002	9.65224E-004	7	...........	-327.66
	210	0.0422	-2.32502E-002	1.43110E-006	0.00000E+000	-2.34000E-002	1.06522E-003	7	...........	-327.66
	211	0.0424	-1.32627E-002	1.42885E-006	0.00000E+000	-1.34000E-002	1.16522E-003	7	...........	-327.66
	212	0.0426	-3.28769E-003	1.42710E-006	0.00000E+000	-3.40001E-003	1.21522E-003	7	...........	-327.66
	213	0.0428	6.74981E-003	1.42485E-006	0.00000E+000	6.59999E-003	1.06522E-003	7	...........	-327.66
	214	0.043	1.67373E-002	1.41985E-006	0.00000E+000	1.66000E-002	1.04022E-003	7	...........	-327.66
	215	0.0432	2.67123E-002	1.41735E-006	0.00000E+000	2.66000E-002	1.04022E-003	7	...........	-327.66
	216	0.0434	3.67498E-002	1.41560E-006	0.00000E+000	3.66000E-002	1.04022E-003	7	...........	-327.66
	217	0.0436	4.67248E-002	1.41460E-006	0.00000E+000	4.66000E-002	9.40224E-004	7	...........	-327.66
	218	0.0438	5.66873E-002	1.41360E-006	0.00000E+000	5.66000E-002	1.04022E-003	7	...........	-327.66
	219	0.044	6.65873E-002	1.40610E-006	0.00000E+000	6.66000E-002	9.40224E-004	7	...........	-327.66
	220	0.0442	7.66123E-002	1.40710E-006	0.00000E+000	7.66000E-002	1.19022E-003	7	...........	-327.66
	221	0.0444	8.66998E-002	1.40460E-006	0.00000E+000	8.66000E-002	1.01522E-003	7	...........	-327.66
	222	0.0446	9.67373E-002	1.40109E-006	0.00000E+000	9.66000E-002	1.14022E-003	7	...........	-327.66
	223	0.0448	1.06762E-001	1.40034E-006	0.00000E+000	1.06600E-001	1.14022E-003	7	...........	-327.66
	224	0.045	1.16612E-001	1.39834E-006	0.00000E+000	1.16600E-001	1.19022E-003	7	...........	-327.66
	225	0.0452	1.26687E-001	1.39559E-006	0.00000E+000	1.26600E-001	1.14022E-003	7	...........	-327.66
	226	0.0454	1.36775E-001	1.39209E-006	0.00000E+000	1.36600E-001	1.06522E-003	7	...........	-327.66
	227	0.0456	1.46762E-001	1.39209E-006	0.00000E+000	1.46600E-001	1.04022E-003	7	...........	-327.66
	228	0.0458	1.56737E-001	1.39134E-006	0.00000E+000	1.56600E-001	1.11522E-003	7	...........	-327.66
	229	0.046	1.66837E-001	1.38634E-006	0.00000E+000	1.66600E-001	1.01522E-003	7	...........	-327.66
	230	0.0462	1.76712E-001	1.38734E-006	0.00000E+000	1.76600E-001	1.11522E-003	7	...........	-327.66
	231	0.0464	1.86725E-001	1.38134E-006	0.00000E+000	1.86600E-001	1.24022E-003	7	...........	-327.66
	232	0.0466	1.96737E-001	1.37859E-006	0.00000E+000	1.96600E-001	1.09022E-003	7	...........	-327.66
	233	0.0468	2.06687E-001	1.38234E-006	0.00000E+000	2.06600E-001	1.16522E-003	7	...........	-327.66
	234	0.047	2.16750E-001	1.37909E-006	0.00000E+000	2.16600E-001	1.19022E-003	7	...........	-327.66
	235	0.0472	2.26762E-001	1.37809E-006	0.00000E+000	2.26600E-001	1.04022E-003	7	...........	-327.66
	236	0.0474	2.36612E-001	1.37434E-006	0.00000E+000	2.36600E-001	9.90224E-004	7	...........	-327.66
	237	0.0476	2.46800E-001	1.37359E-006	0.00000E+000	2.46600E-001	1.14022E-003	7	...........	-327.66
	238	0.0478	2.56700E-001	1.37259E-006	0.00000E+000	2.56600E-001	1.04022E-003	7	...........	-327.66
	239	0.048	2.66612E-001	1.36934E-006	0.00000E+000	2.66600E-001	1.11522E-003	7	...........	-327.66
	240	0.0482	2.76687E-001	1.36834E-006	0.00000E+000	2.76600E-001	1.09022E-003	7	...........	-327.66
	241	0.0484	2.86737E-001	1.36834E-006	0.00000E+000	2.86600E-001	9.65224E-004	7	...........	-327.66
	242	0.0486	2.96737E-001	1.36634E-006	0.00000E+000	2.96600E-001	9.90224E-004	7	...........	-327.66
	243	0.0488	3.06737E-001	1.36359E-006	0.00000E+000	3.06600E-001	1.14022E-003	7	...........	-327.66
	244	0.049	3.16587E-001	1.36559E-006	0.00000E+000	3.16600E-001	1.16522E-003	7	...........	-327.66
	245	0.0492	3.26687E-001	1.36234E-006	0.00000E+000	3.26600E-001	1.06522E-003	7	...........	-327.66
	246	0.0494	3.36750E-001	1.36209E-006	0.00000E+000	3.36600E-001	1.09022E-003	7	...........	-327.66
	247	0.0496	3.46937E-001	1.36134E-006	0.00000E+000	3.46600E-001	1.29022E-003	7	...........	-327.66
	248	0.0498	3.56712E-001	1.36109E-006	0.00000E+000	3.56600E-001	9.90224E-004	7	...........	-327.66
	249	0.05	3.66700E-001	1.35584E-006	0.00000E+000	3.66600E-001	1.01522E-003	7	...........	-327.66
	250	0.0502	3.76675E-001	1.35834E-006	0.00000E+000	3.76600E-001	1.06522E-003	7	...........	-327.66
	251	0.0504	3.86737E-001	1.35859E-006	0.00000E+000	3.86600E-001	1.11522E-003	7	...........	-327.66
	252	0.0506	3.96675E-001	1.35534E-006	0.00000E+000	3.96600E-001	1.01522E-003	7	...........	-327.66
	253	0.0508	4.06837E-001	1.35659E-006	0.00000E+000	4.06600E-001	1.06522E-003	7	...........	-327.66
	254	0.051	4.16637E-001	1.35184E-006	0.00000E+000	4.16600E-001	1.06522E-003	7	...........	-327.66
	255	0.0512	4.26737E-001	1.35284E-006	0.00000E+000	4.26600E-001	9.40224E-004	7	...........	-327.66
	256	0.0514	4.36612E-001	1.35434E-006	0.00000E+000	4.36600E-001	1.09022E-003	7	...........	-327.66
	257	0.0516	4.46687E-001	1.35284E-006	0.00000E+000	4.46600E-001	1.09022E-003	7	...........	-327.66
	258	0.0518	4.56725E-001	1.35409E-006	0.00000E+000	4.56600E-001	1.04022E-003	7	...........	-327.66
	259	0.052	4.66562E-001	1.34934E-006	0.00000E+000	4.66600E-001	1.14022E-003	7	...........	-327.66
	260	0.0522	4.76725E-001	1.35484E-006	0.00000E+000	4.76600E-001	9.40224E-004	7	...........	-327.66
	261	0.0524	4.86612E-001	1.35159E-006	0.00000E+000	4.86600E-001	1.04022E-003	7	...........	-327.66
	262	0.0526	4.96737E-001	1.35159E-006	0.00000E+000	4.96600E-001	1.16522E-003	7	...........	-327.66
	263	0.0528	5.06687E-001	1.35284E-006	0.00000E+000	5.06600E-001	1.09022E-003	7	...........	-327.66
	264	0.053	5.16687E-001	1.35309E-006	0.00000E+000	5.16600E-001	1.11522E-003	7	...........	-327.66
	265	0.0532	5.26712E-001	1.35309E-006	0.00000E+000	5.26600E-001	1.19022E-003	7	...........	-327.66
	266	0.0534	5.36687E-001	1.35509E-006	0.00000E+000	5.36600E-001	1.11522E-003	7	...........	-327.66
	267	0.0536	5.46662E-001	1.35734E-006	0.00000E+000	5.46600E-001	1.06522E-003	7	...........	-327.66
	268	0.0538	5.56662E-001	1.35934E-006	0.00000E+000	5.56600E-001	1.01522E-003	7	...........	-327.66
	269	0.054	5.66637E-001	1.36359E-006	0.00000E+000	5.66600E-001	1.11522E-003	7	...........	-327.66
	270	0.0542	5.76700E-001	1.36759E-006	0.00000E+000	5.76600E-001	1.14022E-003	7	...........	-327.66
	271	0.0544	5.86737E-001	1.37384E-006	0.00000E+000	5.86600E-001	1.09022E-003	7	...........	-327.66
	272	0.0546	5.96650E-001	1.38184E-006	0.00000E+000	5.96600E-001	9.90224E-004	7	...........	-327.66
CURVE2	TABLE
	Pt	T	Vf	Im	Vu	Sig	Ach	IERange	Over	Temp
	#	s	V vs. Ref.	A	V	V	V	#	bits	deg C
	273	0.0548	5.89987E-001	2.34686E-007	0.00000E+000	5.90000E-001	1.09022E-003	7	...........	-327.66
	274	0.055	5.80025E-001	-4.60159E-007	0.00000E+000	5.80000E-001	1.06522E-003	7	...........	-327.66
	275	0.0552	5.70037E-001	-7.09193E-007	0.00000E+000	5.70000E-001	1.14022E-003	7	...........	-327.66
	276	0.0554	5.60000E-001	-8.06706E-007	0.00000E+000	5.60000E-001	1.04022E-003	7	...........	-327.66
	277	0.0556	5.50037E-001	-8.60463E-007	0.00000E+000	5.50000E-001	1.19022E-003	7	...........	-327.66
	278	0.0558	5.39975E-001	-8.93218E-007	0.00000E+000	5.40000E-001	1.06522E-003	7	...........	-327.66
	279	0.056	5.30125E-001	-9.17721E-007	0.00000E+000	5.30000E-001	1.09022E-003	7	...........	-327.66
	280	0.0562	5.20012E-001	-9.34223E-007	0.00000E+000	5.20000E-001	1.16522E-003	7	...........	-327.66
	281	0.0564	5.10075E-001	-9.49726E-007	0.00000E+000	5.10000E-001	1.09022E-003	7	...........	-327.66
	282	0.0566	4.99975E-001	-9.60227E-007	0.00000E+000	5.00000E-001	1.14022E-003	7	...........	-327.66
	283	0.0568	4.90050E-001	-9.70728E-007	0.00000E+000	4.90000E-001	1.06522E-003	7	...........	-327.66
	284	0.057	4.79937E-001	-9.82980E-007	0.00000E+000	4.80000E-001	1.19022E-003	7	...........	-327.66
	285	0.0572	4.70062E-001	-9.87731E-007	0.00000E+000	4.70000E-001	1.06522E-003	7	...........	-327.66
	286	0.0574	4.59962E-001	-9.96482E-007	0.00000E+000	4.60000E-001	1.19022E-003	7	...........	-327.66
	287	0.0576	4.50137E-001	-1.00298E-006	0.00000E+000	4.50000E-001	1.06522E-003	7	...........	-327.66
	288	0.0578	4.39925E-001	-1.00973E-006	0.00000E+000	4.40000E-001	1.04022E-003	7	...........	-327.66
	289	0.058	4.29987E-001	-1.01473E-006	0.00000E+000	4.30000E-001	1.06522E-003	7	...........	-327.66
	290	0.0582	4.20000E-001	-1.02249E-006	0.00000E+000	4.20000E-001	1.14022E-003	7	...........	-327.66
	291	0.0584	4.10037E-001	-1.02749E-006	0.00000E+000	4.10000E-001	1.09022E-003	7	...........	-327.66
	292	0.0586	3.99987E-001	-1.03249E-006	0.00000E+000	4.00000E-001	1.09022E-003	7	...........	-327.66
	293	0.0588	3.89962E-001	-1.03899E-006	0.00000E+000	3.90000E-001	1.09022E-003	7	...........	-327.66
	294	0.059	3.79937E-001	-1.04399E-006	0.00000E+000	3.80000E-001	1.04022E-003	7	...........	-327.66
	295	0.0592	3.70137E-001	-1.05199E-006	0.00000E+000	3.70000E-001	1.01522E-003	7	...........	-327.66
	296	0.0594	3.59987E-001	-1.05724E-006	0.00000E+000	3.60000E-001	1.14022E-003	7	...........	-327.66
	297	0.0596	3.49975E-001	-1.06299E-006	0.00000E+000	3.50000E-001	1.09022E-003	7	...........	-327.66
	298	0.0598	3.40012E-001	-1.06849E-006	0.00000E+000	3.40000E-001	1.09022E-003	7	...........	-327.66
	299	0.06	3.30037E-001	-1.07549E-006	0.00000E+000	3.30000E-001	1.06522E-003	7	...........	-327.66
	300	0.0602	3.20087E-001	-1.08224E-006	0.00000E+000	3.20000E-001	1.01522E-003	7	...........	-327.66
	301	0.0604	3.10012E-001	-1.08549E-006	0.00000E+000	3.10000E-001	9.90224E-004	7	...........	-327.66
	302	0.0606	3.00037E-001	-1.09350E-006	0.00000E+000	3.00000E-001	1.19022E-003	7	...........	-327.66
	303	0.0608	2.90025E-001	-1.09600E-006	0.00000E+000	2.90000E-001	1.01522E-003	7	...........	-327.66
	304	0.061	2.79987E-001	-1.10450E-006	0.00000E+000	2.80000E-001	1.01522E-003	7	...........	-327.66
	305	0.0612	2.70137E-001	-1.11325E-006	0.00000E+000	2.70000E-001	1.16522E-003	7	...........	-327.66
	306	0.0614	2.59950E-001	-1.12075E-006	0.00000E+000	2.60000E-001	1.11522E-003	7	...........	-327.66
	307	0.0616	2.50212E-001	-1.12275E-006	0.00000E+000	2.50000E-001	1.11522E-003	7	...........	-327.66
	308	0.0618	2.39987E-001	-1.13175E-006	0.00000E+000	2.40000E-001	9.65224E-004	7	...........	-327.66
	309	0.062	2.30012E-001	-1.13900E-006	0.00000E+000	2.30000E-001	1.01522E-003	7	...........	-327.66
	310	0.0622	2.20000E-001	-1.14625E-006	0.00000E+000	2.20000E-001	1.19022E-003	7	...........	-327.66
	311	0.0624	2.10087E-001	-1.15325E-006	0.00000E+000	2.10000E-001	1.04022E-003	7	...........	-327.66
	312	0.0626	2.00012E-001	-1.15800E-006	0.00000E+000	2.00000E-001	1.04022E-003	7	...........	-327.66
	313	0.0628	1.90100E-001	-1.16926E-006	0.00000E+000	1.90000E-001	1.16522E-003	7	...........	-327.66
	314	0.063	1.79987E-001	-1.17626E-006	0.00000E+000	1.80000E-001	1.04022E-003	7	...........	-327.66
	315	0.0632	1.70250E-001	-1.18251E-006	0.00000E+000	1.70000E-001	1.04022E-003	7	...........	-327.66
	316	0.0634	1.60037E-001	-1.18801E-006	0.00000E+000	1.60000E-001	1.06522E-003	7	...........	-327.66
	317	0.0636	1.50087E-001	-1.19676E-006	0.00000E+000	1.50000E-001	1.19022E-003	7	...........	-327.66
	318	0.0638	1.40137E-001	-1.20276E-006	0.00000E+000	1.40000E-001	1.04022E-003	7	...........	-327.66
	319	0.064	1.30187E-001	-1.20951E-006	0.00000E+000	1.30000E-001	1.06522E-003	7	...........	-327.66
	320	0.0642	1.20062E-001	-1.21901E-006	0.00000E+000	1.20000E-001	1.14022E-003	7	...........	-327.66
	321	0.0644	1.10125E-001	-1.22576E-006	0.00000E+000	1.10000E-001	1.16522E-003	7	...........	-327.66
	322	0.0646	9.99873E-002	-1.23576E-006	0.00000E+000	1.00000E-001	1.19022E-003	7	...........	-327.66
	323	0.0648	9.01873E-002	-1.23726E-006	0.00000E+000	9.00000E-002	1.14022E-003	7	...........	-327.66
	324	0.065	8.00123E-002	-1.24577E-006	0.00000E+000	8.00000E-002	1.11522E-003	7	...........	-327.66
	325	0.0652	7.01373E-002	-1.25402E-006	0.00000E+000	7.00000E-002	1.09022E-003	7	...........	-327.66
	326	0.0654	6.00123E-002	-1.26077E-006	0.00000E+000	6.00000E-002	1.09022E-003	7	...........	-327.66
	327	0.0656	5.01498E-002	-1.26577E-006	0.00000E+000	5.00000E-002	1.16522E-003	7	...........	-327.66
	328	0.0658	4.00498E-002	-1.27252E-006	0.00000E+000	4.00000E-002	1.09022E-003	7	...........	-327.66
	329	0.066	2.99373E-002	-1.28227E-006	0.00000E+000	3.00000E-002	1.14022E-003	7	...........	-327.66
	330	0.0662	1.99873E-002	-1.28602E-006	0.00000E+000	2.00000E-002	9.90224E-004	7	...........	-327.66
	331	0.0664	1.00998E-002	-1.29377E-006	0.00000E+000	9.99999E-003	1.06522E-003	7	...........	-327.66
	332	0.0666	-1.87501E-007	-1.30102E-006	0.00000E+000	-1.49012E-008	1.11522E-003	7	...........	-327.66
	333	0.0668	-9.78769E-003	-1.30702E-006	0.00000E+000	-1.00000E-002	1.24022E-003	7	...........	-327.66
	334	0.067	-1.99377E-002	-1.31102E-006	0.00000E+000	-2.00000E-002	1.04022E-003	7	...........	-327.66
	335	0.0672	-2.98752E-002	-1.31653E-006	0.00000E+000	-3.00000E-002	1.11522E-003	7	...........	-327.66
	336	0.0674	-3.99127E-002	-1.32528E-006	0.00000E+000	-4.00000E-002	1.09022E-003	7	...........	-327.66
	337	0.0676	-4.98502E-002	-1.32778E-006	0.00000E+000	-5.00000E-002	1.26522E-003	7	...........	-327.66
	338	0.0678	-5.99252E-002	-1.33353E-006	0.00000E+000	-6.00000E-002	1.06522E-003	7	...........	-327.66
	339	0.068	-6.98377E-002	-1.33953E-006	0.00000E+000	-7.00000E-002	1.09022E-003	7	...........	-327.66
	340	0.0682	-8.00502E-002	-1.34353E-006	0.00000E+000	-8.00000E-002	1.14022E-003	7	...........	-327.66
	341	0.0684	-8.98752E-002	-1.34928E-006	0.00000E+000	-9.00000E-002	1.09022E-003	7	...........	-327.66
	342	0.0686	-9.99752E-002	-1.35153E-006	0.00000E+000	-1.00000E-001	1.01522E-003	7	...........	-327.66
	343	0.0688	-1.09738E-001	-1.35953E-006	0.00000E+000	-1.10000E-001	1.01522E-003	7	...........	-327.66
	344	0.069	-1.19963E-001	-1.36503E-006	0.00000E+000	-1.20000E-001	1.04022E-003	7	...........	-327.66
	345	0.0692	-1.30000E-001	-1.36828E-006	0.00000E+000	-1.30000E-001	1.14022E-003	7	...........	-327.66
	346	0.0694	-1.39950E-001	-1.37228E-006	0.00000E+000	-1.40000E-001	1.09022E-003	7	...........	-327.66
	347	0.0696	-1.49825E-001	-1.37878E-006	0.00000E+000	-1.50000E-001	1.11522E-003	7	...........	-327.66
	348	0.0698	-1.59963E-001	-1.38453E-006	0.00000E+000	-1.60000E-001	1.14022E-003	7	...........	-327.66
	349	0.07	-1.69950E-001	-1.38453E-006	0.00000E+000	-1.70000E-001	1.01522E-003	7	...........	-327.66
	350	0.0702	-1.79988E-001	-1.39029E-006	0.00000E+000	-1.80000E-001	1.11522E-003	7	...........	-327.66
	351	0.0704	-1.89863E-001	-1.39429E-006	0.00000E+000	-1.90000E-001	1.11522E-003	7	...........	-327.66
	352	0.0706	-1.99888E-001	-1.39604E-006	0.00000E+000	-2.00000E-001	1.16522E-003	7	...........	-327.66
	353	0.0708	-2.09900E-001	-1.39904E-006	0.00000E+000	-2.10000E-001	1.14022E-003	7	...........	-327.66
	354	0.071	-2.19913E-001	-1.40079E-006	0.00000E+000	-2.20000E-001	1.11522E-003	7	...........	-327.66
	355	0.0712	-2.29863E-001	-1.40404E-006	0.00000E+000	-2.30000E-001	9.90224E-004	7	...........	-327.66
	356	0.0714	-2.40038E-001	-1.40779E-006	0.00000E+000	-2.40000E-001	1.04022E-003	7	...........	-327.66
	357	0.0716	-2.49863E-001	-1.41004E-006	0.00000E+000	-2.50000E-001	1.06522E-003	7	...........	-327.66
	358	0.0718	-2.60000E-001	-1.41279E-006	0.00000E+000	-2.60000E-001	9.90224E-004	7	...........	-327.66
	359	0.072	-2.69850E-001	-1.41529E-006	0.00000E+000	-2.70000E-001	1.01522E-003	7	...........	-327.66
	360	0.0722	-2.79938E-001	-1.41679E-006	0.00000E+000	-2.80000E-001	1.09022E-003	7	...........	-327.66
	361	0.0724	-2.89788E-001	-1.41329E-006	0.00000E+000	-2.90000E-001	1.06522E-003	7	...........	-327.66
	362	0.0726	-2.99863E-001	-1.41879E-006	0.00000E+000	-3.00000E-001	1.14022E-003	7	...........	-327.66
	363	0.0728	-3.09863E-001	-1.42029E-006	0.00000E+000	-3.10000E-001	1.04022E-003	7	...........	-327.66
	364	0.073	-3.19913E-001	-1.42204E-006	0.00000E+000	-3.20000E-001	1.21522E-003	7	...........	-327.66
	365	0.0732	-3.29963E-001	-1.42154E-006	0.00000E+000	-3.30000E-001	1.04022E-003	7	...........	-327.66
	366	0.0734	-3.40025E-001	-1.42279E-006	0.00000E+000	-3.40000E-001	1.04022E-003	7	...........	-327.66
	367	0.0736	-3.49863E-001	-1.42429E-006	0.00000E+000	-3.50000E-001	1.24022E-003	7	...........	-327.66
	368	0.0738	-3.59925E-001	-1.42654E-006	0.00000E+000	-3.60000E-001	1.21522E-003	7	...........	-327.66
	369	0.074	-3.69700E-001	-1.42879E-006	0.00000E+000	-3.70000E-001	1.19022E-003	7	...........	-327.66
	370	0.0742	-3.79963E-001	-1.42954E-006	0.00000E+000	-3.80000E-001	9.65224E-004	7	...........	-327.66
	371	0.0744	-3.89913E-001	-1.43004E-006	0.00000E+000	-3.90000E-001	1.01522E-003	7	...........	-327.66
	372	0.0746	-3.99900E-001	-1.43104E-006	0.00000E+000	-4.00000E-001	1.11522E-003	7	...........	-327.66
	373	0.0748	-4.09800E-001	-1.43254E-006	0.00000E+000	-4.10000E-001	1.16522E-003	7	...........	-327.66
	374	0.075	-4.19913E-001	-1.43529E-006	0.00000E+000	-4.20000E-001	1.01522E-003	7	...........	-327.66
	375	0.0752	-4.29875E-001	-1.43329E-006	0.00000E+000	-4.30000E-001	1.04022E-003	7	...........	-327.66
	376	0.0754	-4.39950E-001	-1.43404E-006	0.00000E+000	-4.40000E-001	1.06522E-003	7	...........	-327.66
	377	0.0756	-4.49675E-001	-1.43854E-006	0.00000E+000	-4.50000E-001	1.11522E-003	7	...........	-327.66
	378	0.0758	-4.59950E-001	-1.43704E-006	0.00000E+000	-4.60000E-001	1.06522E-003	7	...........	-327.66
	379	0.076	-4.69788E-001	-1.43629E-006	0.00000E+000	-4.70000E-001	1.11522E-003	7	...........	-327.66
	380	0.0762	-4.79900E-001	-1.43604E-006	0.00000E+000	-4.80000E-001	1.19022E-003	7	...........	-327.66
	381	0.0764	-4.89913E-001	-1.43279E-006	0.00000E+000	-4.90000E-001	9.90224E-004	7	...........	-327.66
	382	0.0766	-4.99838E-001	-1.43254E-006	0.00000E+000	-5.00000E-001	1.19022E-003	7	...........	-327.66
	383	0.0768	-5.09888E-001	-1.43304E-006	0.00000E+000	-5.10000E-001	1.01522E-003	7	...........	-327.66
	384	0.077	-5.19950E-001	-1.43504E-006	0.00000E+000	-5.20000E-001	9.90224E-004	7	...........	-327.66
	385	0.0772	-5.29875E-001	-1.43204E-006	0.00000E+000	-5.30000E-001	1.09022E-003	7	...........	-327.66
	386	0.0774	-5.39888E-001	-1.43679E-006	0.00000E+000	-5.40000E-001	1.14022E-003	7	...........	-327.66
	387	0.0776	-5.49738E-001	-1.43554E-006	0.00000E+000	-5.50000E-001	1.04022E-003	7	...........	-327.66
	388	0.0778	-5.59925E-001	-1.43754E-006	0.00000E+000	-5.60000E-001	1.04022E-003	7	...........	-327.66
	389	0.078	-5.69875E-001	-1.44229E-006	0.00000E+000	-5.70000E-001	1.09022E-003	7	...........	-327.66
	390	0.0782	-5.79825E-001	-1.44654E-006	0.00000E+000	-5.80000E-001	1.06522E-003	7	...........	-327.66
	391	0.0784	-5.89713E-001	-1.44954E-006	0.00000E+000	-5.90000E-001	1.24022E-003	7	...........	-327.66
	392	0.0786	-5.99975E-001	-1.45404E-006	0.00000E+000	-6.00000E-001	1.11522E-003	7	...........	-327.66
	393	0.0788	-6.09863E-001	-1.45854E-006	0.00000E+000	-6.10000E-001	1.01522E-003	7	...........	-327.66
	394	0.079	-6.19950E-001	-1.46355E-006	0.00000E+000	-6.20000E-001	1.04022E-003	7	...........	-327.66
	395	0.0792	-6.29788E-001	-1.46780E-006	0.00000E+000	-6.30000E-001	1.06522E-003	7	...........	-327.66
	396	0.0794	-6.39913E-001	-1.47130E-006	0.00000E+000	-6.40000E-001	1.06522E-003	7	...........	-327.66
	397	0.0796	-6.49738E-001	-1.47980E-006	0.00000E+000	-6.50000E-001	1.06522E-003	7	...........	-327.66
	398	0.0798	-6.59850E-001	-1.48330E-006	0.00000E+000	-6.60000E-001	1.14022E-003	7	...........	-327.66
	399	0.08	-6.69763E-001	-1.48980E-006	0.00000E+000	-6.70000E-001	1.09022E-003	7	...........	-327.66
	400	0.0802	-6.79838E-001	-1.49205E-006	0.00000E+000	-6.80000E-001	1.11522E-003	7	...........	-327.66
	401	0.0804	-6.89750E-001	-1.49605E-006	0.00000E+000	-6.90000E-001	1.11522E-003	7	...........	-327.66
	402	0.0806	-6.99938E-001	-1.49905E-006	0.00000E+000	-7.00000E-001	1.06522E-003	7	...........	-327.66
	403	0.0808	-7.09775E-001	-1.50205E-006	0.00000E+000	-7.10000E-001	1.09022E-003	7	...........	-327.66
	404	0.081	-7.19850E-001	-1.50580E-006	0.00000E+000	-7.20000E-001	1.16522E-003	7	...........	-327.66
	405	0.0812	-7.29900E-001	-1.50980E-006	0.00000E+000	-7.30000E-001	1.01522E-003	7	...........	-327.66
	406	0.0814	-7.39875E-001	-1.50980E-006	0.00000E+000	-7.40000E-001	1.01522E-003	7	...........	-327.66
	407	0.0816	-7.49713E-001	-1.51180E-006	0.00000E+000	-7.50000E-001	1.29022E-003	7	...........	-327.66
	408	0.0818	-7.59813E-001	-1.51180E-006	0.00000E+000	-7.60000E-001	1.11522E-003	7	...........	-327.66
	409	0.082	-7.69938E-001	-1.50830E-006	0.00000E+000	-7.70000E-001	1.01522E-003	7	...........	-327.66
	410	0.0822	-7.79825E-001	-1.50405E-006	0.00000E+000	-7.80000E-001	1.11522E-003	7	...........	-327.66
	411	0.0824	-7.89725E-001	-1.49655E-006	0.00000E+000	-7.90000E-001	1.19022E-003	7	...........	-327.66
	412	0.0826	-7.99863E-001	-1.48380E-006	0.00000E+000	-8.00000E-001	1.01522E-003	7	...........	-327.66
	413	0.0828	-8.09813E-001	-1.46080E-006	0.00000E+000	-8.10000E-001	1.11522E-003	7	...........	-327.66
	414	0.083	-8.19888E-001	-1.43529E-006	0.00000E+000	-8.20000E-001	1.09022E-003	7	...........	-327.66
	415	0.0832	-8.29650E-001	-1.38979E-006	0.00000E+000	-8.30000E-001	1.01522E-003	7	...........	-327.66
	416	0.0834	-8.39963E-001	-1.33978E-006	0.00000E+000	-8.40000E-001	1.16522E-003	7	...........	-327.66
	417	0.0836	-8.49838E-001	-1.27527E-006	0.00000E+000	-8.50000E-001	1.11522E-003	7	...........	-327.66
	418	0.0838	-8.59750E-001	-1.19876E-006	0.00000E+000	-8.60000E-001	1.11522E-003	7	...........	-327.66
	419	0.084	-8.69738E-001	-1.11225E-006	0.00000E+000	-8.70000E-001	1.14022E-003	7	...........	-327.66
	420	0.0842	-8.79850E-001	-1.02299E-006	0.00000E+000	-8.80000E-001	1.24022E-003	7	...........	-327.66
	421	0.0844	-8.89775E-001	-9.33723E-007	0.00000E+000	-8.90000E-001	9.90224E-004	7	...........	-327.66
	422	0.0846	-8.99950E-001	-8.46711E-007	0.00000E+000	-9.00000E-001	1.04022E-003	7	...........	-327.66
	423	0.0848	-8.89738E-001	-3.69396E-007	0.00000E+000	-8.90000E-001	1.14022E-003	7	...........	-327.66
	424	0.085	-8.79775E-001	-9.21086E-008	0.00000E+000	-8.80000E-001	1.14022E-003	7	...........	-327.66
	425	0.0852	-8.69863E-001	9.94175E-008	0.00000E+000	-8.70000E-001	1.09022E-003	7	...........	-327.66
	426	0.0854	-8.59838E-001	2.57189E-007	0.00000E+000	-8.60000E-001	1.04022E-003	7	...........	-327.66
	427	0.0856	-8.49900E-001	3.94958E-007	0.00000E+000	-8.50000E-001	1.14022E-003	7	...........	-327.66
	428	0.0858	-8.39975E-001	5.18725E-007	0.00000E+000	-8.40000E-001	1.09022E-003	7	...........	-327.66
	429	0.086	-8.29750E-001	6.30240E-007	0.00000E+000	-8.30000E-001	1.04022E-003	7	...........	-327.66
	430	0.0862	-8.19888E-001	7.30003E-007	0.00000E+000	-8.20000E-001	1.09022E-003	7	...........	-327.66
	431	0.0864	-8.09775E-001	8.24266E-007	0.00000E+000	-8.10000E-001	9.90224E-004	7	...........	-327.66
	432	0.0866	-7.99813E-001	9.05277E-007	0.00000E+000	-8.00000E-001	1.01522E-003	7	...........	-327.66
	433	0.0868	-7.89838E-001	9.75287E-007	0.00000E+000	-7.90000E-001	1.01522E-003	7	...........	-327.66
	434	0.087	-7.79875E-001	1.03254E-006	0.00000E+000	-7.80000E-001	1.14022E-003	7	...........	-327.66
	435	0.0872	-7.69838E-001	1.07805E-006	0.00000E+000	-7.70000E-001	1.11522E-003	7	...........	-327.66
	436	0.0874	-7.59788E-001	1.11581E-006	0.00000E+000	-7.60000E-001	1.11522E-003	7	...........	-327.66
	437	0.0876	-7.49700E-001	1.14281E-006	0.00000E+000	-7.50000E-001	9.65224E-004	7	...........	-327.66
	438	0.0878	-7.39863E-001	1.16531E-006	0.00000E+000	-7.40000E-001	1.14022E-003	7	...........	-327.66
	439	0.088	-7.29800E-001	1.17956E-006	0.00000E+000	-7.30000E-001	1.14022E-003	7	...........	-327.66
	440	0.0882	-7.19725E-001	1.19157E-006	0.00000E+000	-7.20000E-001	1.21522E-003	7	...........	-327.66
	441	0.0884	-7.09750E-001	1.19882E-006	0.00000E+000	-7.10000E-001	1.11522E-003	7	...........	-327.66
	442	0.0886	-6.99863E-001	1.20257E-006	0.00000E+000	-7.00000E-001	1.14022E-003	7	...........	-327.66
	443	0.0888	-6.89838E-001	1.20832E-006	0.00000E+000	-6.90000E-001	1.09022E-003	7	...........	-327.66
	444	0.089	-6.79863E-001	1.21157E-006	0.00000E+000	-6.80000E-001	9.90224E-004	7	...........	-327.66
	445	0.0892	-6.69750E-001	1.21557E-006	0.00000E+000	-6.70000E-001	1.14022E-003	7	...........	-327.66
	446	0.0894	-6.59825E-001	1.21707E-006	0.00000E+000	-6.60000E-001	1.06522E-003	7	...........	-327.66
	447	0.0896	-6.49788E-001	1.22207E-006	0.00000E+000	-6.50000E-001	1.09022E-003	7	...........	-327.66
	448	0.0898	-6.39975E-001	1.22532E-006	0.00000E+000	-6.40000E-001	1.09022E-003	7	...........	-327.66
	449	0.09	-6.29713E-001	1.23032E-006	0.00000E+000	-6.30000E-001	1.04022E-003	7	...........	-327.66
	450	0.0902	-6.19863E-001	1.23057E-006	0.00000E+000	-6.20000E-001	1.14022E-003	7	...........	-327.66
	451	0.0904	-6.09838E-001	1.23282E-006	0.00000E+000	-6.10000E-001	1.04022E-003	7	...........	-327.66
	452	0.0906	-5.99875E-001	1.23632E-006	0.00000E+000	-6.00000E-001	1.11522E-003	7	...........	-327.66
	453	0.0908	-5.89900E-001	1.24132E-006	0.00000E+000	-5.90000E-001	1.14022E-003	7	...........	-327.66
	454	0.091	-5.79900E-001	1.23882E-006	0.00000E+000	-5.80000E-001	1.09022E-003	7	...........	-327.66
	455	0.0912	-5.69713E-001	1.24382E-006	0.00000E+000	-5.70000E-001	1.11522E-003	7	...........	-327.66
	456	0.0914	-5.59863E-001	1.24257E-006	0.00000E+000	-5.60000E-001	1.11522E-003	7	...........	-327.66
	457	0.0916	-5.49750E-001	1.24357E-006	0.00000E+000	-5.50000E-001	1.04022E-003	7	...........	-327.66
	458	0.0918	-5.39925E-001	1.24432E-006	0.00000E+000	-5.40000E-001	1.06522E-003	7	...........	-327.66
	459	0.092	-5.29888E-001	1.24707E-006	0.00000E+000	-5.30000E-001	9.90224E-004	7	...........	-327.66
	460	0.0922	-5.19938E-001	1.24832E-006	0.00000E+000	-5.20000E-001	1.06522E-003	7	...........	-327.66
	461	0.0924	-5.09850E-001	1.24857E-006	0.00000E+000	-5.10000E-001	9.90224E-004	7	...........	-327.66
	462	0.0926	-4.99838E-001	1.24907E-006	0.00000E+000	-5.00000E-001	1.14022E-003	7	...........	-327.66
	463	0.0928	-4.89863E-001	1.25032E-006	0.00000E+000	-4.90000E-001	1.06522E-003	7	...........	-327.66
	464	0.093	-4.79900E-001	1.25507E-006	0.00000E+000	-4.80000E-001	9.90224E-004	7	...........	-327.66
	465	0.0932	-4.69800E-001	1.25758E-006	0.00000E+000	-4.70000E-001	1.09022E-003	7	...........	-327.66
	466	0.0934	-4.60013E-001	1.26033E-006	0.00000E+000	-4.60000E-001	9.90224E-004	7	...........	-327.66
	467	0.0936	-4.49863E-001	1.26233E-006	0.00000E+000	-4.50000E-001	1.06522E-003	7	...........	-327.66
	468	0.0938	-4.39825E-001	1.26983E-006	0.00000E+000	-4.40000E-001	1.14022E-003	7	...........	-327.66
	469	0.094	-4.29875E-001	1.27758E-006	0.00000E+000	-4.30000E-001	1.21522E-003	7	...........	-327.66
	470	0.0942	-4.19988E-001	1.28408E-006	0.00000E+000	-4.20000E-001	1.06522E-003	7	...........	-327.66
	471	0.0944	-4.09888E-001	1.28908E-006	0.00000E+000	-4.10000E-001	1.09022E-003	7	...........	-327.66
	472	0.0946	-3.99950E-001	1.29733E-006	0.00000E+000	-4.00000E-001	9.65224E-004	7	...........	-327.66
	473	0.0948	-3.89838E-001	1.30383E-006	0.00000E+000	-3.90000E-001	1.04022E-003	7	...........	-327.66
	474	0.095	-3.80013E-001	1.30958E-006	0.00000E+000	-3.80000E-001	1.11522E-003	7	...........	-327.66
	475	0.0952	-3.69763E-001	1.31858E-006	0.00000E+000	-3.70000E-001	9.90224E-004	7	...........	-327.66
	476	0.0954	-3.59963E-001	1.32458E-006	0.00000E+000	-3.60000E-001	1.14022E-003	7	...........	-327.66
	477	0.0956	-3.49863E-001	1.33334E-006	0.00000E+000	-3.50000E-001	1.04022E-003	7	...........	-327.66
	478	0.0958	-3.39888E-001	1.34034E-006	0.00000E+000	-3.40000E-001	1.16522E-003	7	...........	-327.66
	479	0.096	-3.30038E-001	1.34809E-006	0.00000E+000	-3.30000E-001	1.06522E-003	7	...........	-327.66
	480	0.0962	-3.19900E-001	1.35159E-006	0.00000E+000	-3.20000E-001	1.01522E-003	7	...........	-327.66
	481	0.0964	-3.09813E-001	1.36059E-006	0.00000E+000	-3.10000E-001	1.14022E-003	7	...........	-327.66
	482	0.0966	-2.99875E-001	1.36409E-006	0.00000E+000	-3.00000E-001	9.65224E-004	7	...........	-327.66
	483	0.0968	-2.89788E-001	1.36934E-006	0.00000E+000	-2.90000E-001	1.04022E-003	7	...........	-327.66
	484	0.097	-2.79963E-001	1.37509E-006	0.00000E+000	-2.80000E-001	1.06522E-003	7	...........	-327.66
	485	0.0972	-2.69850E-001	1.37984E-006	0.00000E+000	-2.70000E-001	1.06522E-003	7	...........	-327.66
	486	0.0974	-2.59988E-001	1.38409E-006	0.00000E+000	-2.60000E-001	1.01522E-003	7	...........	-327.66
	487	0.0976	-2.49925E-001	1.38684E-006	0.00000E+000	-2.50000E-001	1.06522E-003	7	...........	-327.66
	488	0.0978	-2.39913E-001	1.38784E-006	0.00000E+000	-2.40000E-001	1.06522E-003	7	...........	-327.66
	489	0.098	-2.29800E-001	1.39609E-006	0.00000E+000	-2.30000E-001	1.06522E-003	7	...........	-327.66
	490	0.0982	-2.19825E-001	1.39634E-006	0.00000E+000	-2.20000E-001	1.19022E-003	7	...........	-327.66
	491	0.0984	-2.09763E-001	1.40385E-006	0.00000E+000	-2.10000E-001	1.11522E-003	7	...........	-327.66
	492	0.0986	-1.99938E-001	1.40385E-006	0.00000E+000	-2.00000E-001	1.24022E-003	7	...........	-327.66
	493	0.0988	-1.89738E-001	1.40460E-006	0.00000E+000	-1.90000E-001	1.29022E-003	7	...........	-327.66
	494	0.099	-1.80013E-001	1.41110E-006	0.00000E+000	-1.80000E-001	9.40224E-004	7	...........	-327.66
	495	0.0992	-1.69950E-001	1.41235E-006	0.00000E+000	-1.70000E-001	1.06522E-003	7	...........	-327.66
	496	0.0994	-1.59913E-001	1.41435E-006	0.00000E+000	-1.60000E-001	1.06522E-003	7	...........	-327.66
	497	0.0996	-1.50050E-001	1.41360E-006	0.00000E+000	-1.50000E-001	1.19022E-003	7	...........	-327.66
	498	0.0998	-1.39963E-001	1.41735E-006	0.00000E+000	-1.40000E-001	1.19022E-003	7	...........	-327.66
	499	0.1	-1.29950E-001	1.41860E-006	0.00000E+000	-1.30000E-001	1.09022E-003	7	...........	-327.66
	500	0.1002	-1.19925E-001	1.42010E-006	0.00000E+000	-1.20000E-001	1.04022E-003	7	...........	-327.66
	501	0.1004	-1.09738E-001	1.41960E-006	0.00000E+000	-1.10000E-001	1.14022E-003	7	...........	-327.66
	502	0.1006	-9.99752E-002	1.42160E-006	0.00000E+000	-1.00000E-001	1.09022E-003	7	...........	-327.66
	503	0.1008	-8.98502E-002	1.42335E-006	0.00000E+000	-9.00000E-002	1.11522E-003	7	...........	-327.66
	504	0.101	-8.00002E-002	1.42085E-006	0.00000E+000	-8.00000E-002	1.06522E-003	7	...........	-327.66
	505	0.1012	-6.97877E-002	1.42310E-006	0.00000E+000	-7.00000E-002	1.19022E-003	7	...........	-327.66
	506	0.1014	-5.98502E-002	1.42110E-006	0.00000E+000	-6.00000E-002	1.14022E-003	7	...........	-327.66
	507	0.1016	-4.99877E-002	1.42010E-006	0.00000E+000	-5.00000E-002	1.06522E-003	7	...........	-327.66
	508	0.1018	-3.99377E-002	1.42135E-006	0.00000E+000	-4.00000E-002	1.09022E-003	7	...........	-327.66
	509	0.102	-2.97877E-002	1.42110E-006	0.00000E+000	-3.00000E-002	1.06522E-003	7	...........	-327.66
	510	0.1022	-1.99377E-002	1.41735E-006	0.00000E+000	-2.00000E-002	1.04022E-003	7	...........	-327.66
	511	0.1024	-9.86269E-003	1.41585E-006	0.00000E+000	-1.00000E-002	1.06522E-003	7	...........	-327.66
	512	0.1026	1.23125E-005	1.41560E-006	0.00000E+000	-1.49012E-008	1.11522E-003	7	...........	-327.66
	513	0.1028	1.00873E-002	1.41560E-006	0.00000E+000	9.99999E-003	1.24022E-003	7	...........	-327.66
	514	0.103	2.00873E-002	1.41210E-006	0.00000E+000	2.00000E-002	1.01522E-003	7	...........	-327.66
	515	0.1032	3.00373E-002	1.40985E-006	0.00000E+000	3.00000E-002	1.14022E-003	7	...........	-327.66
	516	0.1034	3.99873E-002	1.40660E-006	0.00000E+000	4.00000E-002	1.09022E-003	7	...........	-327.66
	517	0.1036	5.00748E-002	1.40585E-006	0.00000E+000	5.00000E-002	1.16522E-003	7	...........	-327.66
	518	0.1038	5.99873E-002	1.40084E-006	0.00000E+000	6.00000E-002	1.01522E-003	7	...........	-327.66
	519	0.104	7.00873E-002	1.39934E-006	0.00000E+000	7.00000E-002	1.01522E-003	7	...........	-327.66
	520	0.1042	8.00623E-002	1.39584E-006	0.00000E+000	8.00000E-002	1.14022E-003	7	...........	-327.66
	521	0.1044	9.02373E-002	1.39584E-006	0.00000E+000	9.00000E-002	1.14022E-003	7	...........	-327.66
	522	0.1046	9.99873E-002	1.39484E-006	0.00000E+000	1.00000E-001	1.01522E-003	7	...........	-327.66
	523	0.1048	1.10112E-001	1.39084E-006	0.00000E+000	1.10000E-001	1.11522E-003	7	...........	-327.66
	524	0.105	1.20150E-001	1.39159E-006	0.00000E+000	1.20000E-001	1.04022E-003	7	...........	-327.66
	525	0.1052	1.30200E-001	1.38884E-006	0.00000E+000	1.30000E-001	1.14022E-003	7	...........	-327.66
	526	0.1054	1.40162E-001	1.38409E-006	0.00000E+000	1.40000E-001	1.11522E-003	7	...........	-327.66
	527	0.1056	1.50137E-001	1.38559E-006	0.00000E+000	1.50000E-001	1.04022E-003	7	...........	-327.66
	528	0.1058	1.60075E-001	1.38259E-006	0.00000E+000	1.60000E-001	1.11522E-003	7	...........	-327.66
	529	0.106	1.70262E-001	1.38059E-006	0.00000E+000	1.70000E-001	1.19022E-003	7	...........	-327.66
	530	0.1062	1.80062E-001	1.38284E-006	0.00000E+000	1.80000E-001	1.09022E-003	7	...........	-327.66
	531	0.1064	1.90100E-001	1.37959E-006	0.00000E+000	1.90000E-001	1.11522E-003	7	...........	-327.66
	532	0.1066	1.99962E-001	1.37859E-006	0.00000E+000	2.00000E-001	1.11522E-003	7	...........	-327.66
	533	0.1068	2.09987E-001	1.37809E-006	0.00000E+000	2.10000E-001	9.90224E-004	7	...........	-327.66
	534	0.107	2.20125E-001	1.37584E-006	0.00000E+000	2.20000E-001	1.09022E-003	7	...........	-327.66
	535	0.1072	2.30012E-001	1.37309E-006	0.00000E+000	2.30000E-001	9.90224E-004	7	...........	-327.66
	536	0.1074	2.39975E-001	1.37459E-006	0.00000E+000	2.40000E-001	1.11522E-003	7	...........	-327.66
	537	0.1076	2.50162E-001	1.37284E-006	0.00000E+000	2.50000E-001	1.11522E-003	7	...........	-327.66
	538	0.1078	2.59962E-001	1.37109E-006	0.00000E+000	2.60000E-001	1.24022E-003	7	...........	-327.66
	539	0.108	2.70175E-001	1.37234E-006	0.00000E+000	2.70000E-001	1.09022E-003	7	...........	-327.66
	540	0.1082	2.79987E-001	1.36959E-006	0.00000E+000	2.80000E-001	9.40224E-004	7	...........	-327.66
	541	0.1084	2.90087E-001	1.37084E-006	0.00000E+000	2.90000E-001	1.04022E-003	7	...........	-327.66
	542	0.1086	3.00012E-001	1.36709E-006	0.00000E+000	3.00000E-001	1.14022E-003	7	...........	-327.66
	543	0.1088	3.10012E-001	1.36684E-006	0.00000E+000	3.10000E-001	1.16522E-003	7	...........	-327.66
	544	0.109	3.20037E-001	1.36684E-006	0.00000E+000	3.20000E-001	1.14022E-003	7	...........	-327.66
	545	0.1092	3.30087E-001	1.36959E-006	0.00000E+000	3.30000E-001	9.40224E-004	7	...........	-327.66
	546	0.1094	3.40112E-001	1.36634E-006	0.00000E+000	3.40000E-001	1.11522E-003	7	...........	-327.66
	547	0.1096	3.50187E-001	1.36609E-006	0.00000E+000	3.50000E-001	1.16522E-003	7	...........	-327.66
	548	0.1098	3.60012E-001	1.36709E-006	0.00000E+000	3.60000E-001	1.06522E-003	7	...........	-327.66
	549	0.11	3.70137E-001	1.37034E-006	0.00000E+000	3.70000E-001	1.16522E-003	7	...........	-327.66
	550	0.1102	3.79962E-001	1.36584E-006	0.00000E+000	3.80000E-001	1.04022E-003	7	...........	-327.66
	551	0.1104	3.90037E-001	1.36759E-006	0.00000E+000	3.90000E-001	1.16522E-003	7	...........	-327.66
	552	0.1106	4.00050E-001	1.36809E-006	0.00000E+000	4.00000E-001	1.14022E-003	7	...........	-327.66
	553	0.1108	4.10087E-001	1.36734E-006	0.00000E+000	4.10000E-001	1.04022E-003	7	...........	-327.66
	554	0.111	4.20025E-001	1.36784E-006	0.00000E+000	4.20000E-001	1.09022E-003	7	...........	-327.66
	555	0.1112	4.30112E-001	1.36709E-006	0.00000E+000	4.30000E-001	1.21522E-003	7	...........	-327.66
	556	0.1114	4.39987E-001	1.36484E-006	0.00000E+000	4.40000E-001	1.16522E-003	7	...........	-327.66
	557	0.1116	4.50187E-001	1.36359E-006	0.00000E+000	4.50000E-001	1.09022E-003	7	...........	-327.66
	558	0.1118	4.60012E-001	1.36409E-006	0.00000E+000	4.60000E-001	1.19022E-003	7	...........	-327.66
	559	0.112	4.69987E-001	1.36584E-006	0.00000E+000	4.70000E-001	1.09022E-003	7	...........	-327.66
	560	0.1122	4.79937E-001	1.36609E-006	0.00000E+000	4.80000E-001	1.24022E-003	7	...........	-327.66
	561	0.1124	4.90000E-001	1.36609E-006	0.00000E+000	4.90000E-001	1.01522E-003	7	...........	-327.66
	562	0.1126	5.00025E-001	1.36659E-006	0.00000E+000	5.00000E-001	1.16522E-003	7	...........	-327.66
	563	0.1128	5.10087E-001	1.36484E-006	0.00000E+000	5.10000E-001	1.16522E-003	7	...........	-327.66
	564	0.113	5.19912E-001	1.36784E-006	0.00000E+000	5.20000E-001	1.01522E-003	7	...........	-327.66
	565	0.1132	5.30187E-001	1.36884E-006	0.00000E+000	5.30000E-001	1.11522E-003	7	...........	-327.66
	566	0.1134	5.40037E-001	1.37034E-006	0.00000E+000	5.40000E-001	1.01522E-003	7	...........	-327.66
	567	0.1136	5.50062E-001	1.37184E-006	0.00000E+000	5.50000E-001	1.24022E-003	7	...........	-327.66
	568	0.1138	5.59962E-001	1.37259E-006	0.00000E+000	5.60000E-001	1.06522E-003	7	...........	-327.66
	569	0.114	5.70075E-001	1.37859E-006	0.00000E+000	5.70000E-001	1.16522E-003	7	...........	-327.66
	570	0.1142	5.80012E-001	1.38184E-006	0.00000E+000	5.80000E-001	1.04022E-003	7	...........	-327.66
	571	0.1144	5.90087E-001	1.38684E-006	0.00000E+000	5.90000E-001	1.04022E-003	7	...........	-327.66
	572	0.1146	6.00125E-001	1.39309E-006	0.00000E+000	6.00000E-001	1.09022E-003	7	...........	-327.66
CURVE3	TABLE
	Pt	T	Vf	Im	Vu	Sig	Ach	IERange	Over	Temp
	#	s	V vs. Ref.	A	V	V	V	#	bits	deg C
	573	0.1148	5.89962E-001	9.15515E-009	0.00000E+000	5.90000E-001	1.01522E-003	7	...........	-327.66
	574	0.115	5.79975E-001	-5.46421E-007	0.00000E+000	5.80000E-001	1.09022E-003	7	...........	-327.66
	575	0.1152	5.70037E-001	-7.32196E-007	0.00000E+000	5.70000E-001	1.04022E-003	7	...........	-327.66
	576	0.1154	5.60025E-001	-8.14957E-007	0.00000E+000	5.60000E-001	1.06522E-003	7	...........	-327.66
	577	0.1156	5.50112E-001	-8.66964E-007	0.00000E+000	5.50000E-001	9.40224E-004	7	...........	-327.66
	578	0.1158	5.39937E-001	-8.97468E-007	0.00000E+000	5.40000E-001	1.19022E-003	7	...........	-327.66
	579	0.116	5.30125E-001	-9.22472E-007	0.00000E+000	5.30000E-001	1.04022E-003	7	...........	-327.66
	580	0.1162	5.20087E-001	-9.40724E-007	0.00000E+000	5.20000E-001	1.06522E-003	7	...........	-327.66
	581	0.1164	5.10050E-001	-9.52226E-007	0.00000E+000	5.10000E-001	1.11522E-003	7	...........	-327.66
	582	0.1166	5.00037E-001	-9.64978E-007	0.00000E+000	5.00000E-001	1.09022E-003	7	...........	-327.66
	583	0.1168	4.89950E-001	-9.75729E-007	0.00000E+000	4.90000E-001	1.24022E-003	7	...........	-327.66
	584	0.117	4.79937E-001	-9.85480E-007	0.00000E+000	4.80000E-001	1.01522E-003	7	...........	-327.66
	585	0.1172	4.69987E-001	-9.92481E-007	0.00000E+000	4.70000E-001	9.65224E-004	7	...........	-327.66
	586	0.1174	4.59937E-001	-1.00223E-006	0.00000E+000	4.60000E-001	1.11522E-003	7	...........	-327.66
	587	0.1176	4.50187E-001	-1.00823E-006	0.00000E+000	4.50000E-001	1.21522E-003	7	...........	-327.66
	588	0.1178	4.39987E-001	-1.01623E-006	0.00000E+000	4.40000E-001	1.16522E-003	7	...........	-327.66
	589	0.118	4.30037E-001	-1.02124E-006	0.00000E+000	4.30000E-001	1.06522E-003	7	...........	-327.66
	590	0.1182	4.20037E-001	-1.02724E-006	0.00000E+000	4.20000E-001	1.14022E-003	7	...........	-327.66
	591	0.1184	4.09987E-001	-1.03099E-006	0.00000E+000	4.10000E-001	1.11522E-003	7	...........	-327.66
	592	0.1186	4.00025E-001	-1.03974E-006	0.00000E+000	4.00000E-001	1.11522E-003	7	...........	-327.66
	593	0.1188	3.90000E-001	-1.04474E-006	0.00000E+000	3.90000E-001	1.01522E-003	7	...........	-327.66
	594	0.119	3.79950E-001	-1.05299E-006	0.00000E+000	3.80000E-001	1.16522E-003	7	...........	-327.66
	595	0.1192	3.70037E-001	-1.05874E-006	0.00000E+000	3.70000E-001	1.04022E-003	7	...........	-327.66
	596	0.1194	3.59987E-001	-1.06524E-006	0.00000E+000	3.60000E-001	1.09022E-003	7	...........	-327.66
	597	0.1196	3.50125E-001	-1.07099E-006	0.00000E+000	3.50000E-001	1.09022E-003	7	...........	-327.66
	598	0.1198	3.40012E-001	-1.07424E-006	0.00000E+000	3.40000E-001	1.21522E-003	7	...........	-327.66
	599	0.12	3.30050E-001	-1.08274E-006	0.00000E+000	3.30000E-001	1.11522E-003	7	...........	-327.66
	600	0.1202	3.20012E-001	-1.08649E-006	0.00000E+000	3.20000E-001	1.01522E-003	7	...........	-327.66
	601	0.1204	3.10037E-001	-1.09375E-006	0.00000E+000	3.10000E-001	1.09022E-003	7	...........	-327.66
	602	0.1206	2.99937E-001	-1.10350E-006	0.00000E+000	3.00000E-001	9.90224E-004	7	...........	-327.66
	603	0.1208	2.90012E-001	-1.10650E-006	0.00000E+000	2.90000E-001	1.19022E-003	7	...........	-327.66
	604	0.121	2.79962E-001	-1.11550E-006	0.00000E+000	2.80000E-001	1.11522E-003	7	...........	-327.66
	605	0.1212	2.70050E-001	-1.12175E-006	0.00000E+000	2.70000E-001	1.06522E-003	7	...........	-327.66
	606	0.1214	2.60012E-001	-1.12525E-006	0.00000E+000	2.60000E-001	1.24022E-003	7	...........	-327.66
	607	0.1216	2.50062E-001	-1.13275E-006	0.00000E+000	2.50000E-001	1.09022E-003	7	...........	-327.66
	608	0.1218	2.40112E-001	-1.13825E-006	0.00000E+000	2.40000E-001	1.14022E-003	7	...........	-327.66
	609	0.122	2.30012E-001	-1.14775E-006	0.00000E+000	2.30000E-001	1.06522E-003	7	...........	-327.66
	610	0.1222	2.19937E-001	-1.15300E-006	0.00000E+000	2.20000E-001	1.14022E-003	7	...........	-327.66
	611	0.1224	2.10087E-001	-1.16275E-006	0.00000E+000	2.10000E-001	1.06522E-003	7	...........	-327.66
	612	0.1226	1.99962E-001	-1.16826E-006	0.00000E+000	2.00000E-001	1.01522E-003	7	...........	-327.66
	613	0.1228	1.90137E-001	-1.17376E-006	0.00000E+000	1.90000E-001	9.40224E-004	7	...........	-327.66
	614	0.123	1.79975E-001	-1.18176E-006	0.00000E+000	1.80000E-001	1.06522E-003	7	...........	-327.66
	615	0.1232	1.70200E-001	-1.19051E-006	0.00000E+000	1.70000E-001	1.29022E-003	7	...........	-327.66
	616	0.1234	1.60012E-001	-1.19526E-006	0.00000E+000	1.60000E-001	1.01522E-003	7	...........	-327.66
	617	0.1236	1.50187E-001	-1.20101E-006	0.00000E+000	1.50000E-001	1.21522E-003	7	...........	-327.66
	618	0.1238	1.40175E-001	-1.20951E-006	0.00000E+000	1.40000E-001	1.29022E-003	7	...........	-327.66
	619	0.124	1.30200E-001	-1.21476E-006	0.00000E+000	1.30000E-001	1.11522E-003	7	...........	-327.66
	620	0.1242	1.19987E-001	-1.22626E-006	0.00000E+000	1.20000E-001	1.14022E-003	7	...........	-327.66
	621	0.1244	1.10112E-001	-1.22901E-006	0.00000E+000	1.10000E-001	1.21522E-003	7	...........	-327.66
	622	0.1246	9.99998E-002	-1.23451E-006	0.00000E+000	1.00000E-001	1.04022E-003	7	...........	-327.66
	623	0.1248	9.00248E-002	-1.24277E-006	0.00000E+000	9.00000E-002	1.11522E-003	7	...........	-327.66
	624	0.125	8.00373E-002	-1.24877E-006	0.00000E+000	8.00000E-002	1.04022E-003	7	...........	-327.66
	625	0.1252	7.01248E-002	-1.25877E-006	0.00000E+000	7.00000E-002	1.14022E-003	7	...........	-327.66
	626	0.1254	6.00623E-002	-1.26502E-006	0.00000E+000	6.00000E-002	1.21522E-003	7	...........	-327.66
	627	0.1256	5.00373E-002	-1.26902E-006	0.00000E+000	5.00000E-002	1.09022E-003	7	...........	-327.66
	628	0.1258	4.00248E-002	-1.27702E-006	0.00000E+000	4.00000E-002	1.16522E-003	7	...........	-327.66
	629	0.126	3.01248E-002	-1.28452E-006	0.00000E+000	3.00000E-002	1.01522E-003	7	...........	-327.66
	630	0.1262	1.99873E-002	-1.29152E-006	0.00000E+000	2.00000E-002	1.01522E-003	7	...........	-327.66
	631	0.1264	1.01498E-002	-1.29027E-006	0.00000E+000	9.99999E-003	1.11522E-003	7	...........	-327.66
	632	0.1266	-5.01875E-005	-1.30127E-006	0.00000E+000	-1.49012E-008	9.65224E-004	7	...........	-327.66
	633	0.1268	-9.83769E-003	-1.30727E-006	0.00000E+000	-1.00000E-002	1.11522E-003	7	...........	-327.66
	634	0.127	-1.99377E-002	-1.31302E-006	0.00000E+000	-2.00000E-002	1.06522E-003	7	...........	-327.66
	635	0.1272	-2.99127E-002	-1.31978E-006	0.00000E+000	-3.00000E-002	9.90224E-004	7	...........	-327.66
	636	0.1274	-3.98377E-002	-1.32228E-006	0.00000E+000	-4.00000E-002	1.01522E-003	7	...........	-327.66
	637	0.1276	-4.99002E-002	-1.32878E-006	0.00000E+000	-5.00000E-002	1.16522E-003	7	...........	-327.66
	638	0.1278	-6.00377E-002	-1.33403E-006	0.00000E+000	-6.00000E-002	1.11522E-003	7	...........	-327.66
	639	0.128	-6.98127E-002	-1.33728E-006	0.00000E+000	-7.00000E-002	1.09022E-003	7	...........	-327.66
	640	0.1282	-7.99877E-002	-1.34353E-006	0.00000E+000	-8.00000E-002	1.04022E-003	7	...........	-327.66
	641	0.1284	-9.00002E-002	-1.34878E-006	0.00000E+000	-9.00000E-002	1.06522E-003	7	...........	-327.66
	642	0.1286	-9.99752E-002	-1.35203E-006	0.00000E+000	-1.00000E-001	1.06522E-003	7	...........	-327.66
	643	0.1288	-1.09925E-001	-1.35703E-006	0.00000E+000	-1.10000E-001	9.40224E-004	7	...........	-327.66
	644	0.129	-1.19938E-001	-1.35928E-006	0.00000E+000	-1.20000E-001	9.90224E-004	7	...........	-327.66
	645	0.1292	-1.29925E-001	-1.36653E-006	0.00000E+000	-1.30000E-001	1.09022E-003	7	...........	-327.66
	646	0.1294	-1.39975E-001	-1.37203E-006	0.00000E+000	-1.40000E-001	1.14022E-003	7	...........	-327.66
	647	0.1296	-1.49875E-001	-1.37628E-006	0.00000E+000	-1.50000E-001	1.09022E-003	7	...........	-327.66
	648	0.1298	-1.60075E-001	-1.37978E-006	0.00000E+000	-1.60000E-001	1.04022E-003	7	...........	-327.66
	649	0.13	-1.69850E-001	-1.38178E-006	0.00000E+000	-1.70000E-001	1.11522E-003	7	...........	-327.66
	650	0.1302	-1.80025E-001	-1.38754E-006	0.00000E+000	-1.80000E-001	9.40224E-004	7	...........	-327.66
	651	0.1304	-1.89863E-001	-1.39054E-006	0.00000E+000	-1.90000E-001	1.06522E-003	7	...........	-327.66
	652	0.1306	-1.99988E-001	-1.39479E-006	0.00000E+000	-2.00000E-001	1.16522E-003	7	...........	-327.66
	653	0.1308	-2.09925E-001	-1.39379E-006	0.00000E+000	-2.10000E-001	1.16522E-003	7	...........	-327.66
	654	0.131	-2.19888E-001	-1.39629E-006	0.00000E+000	-2.20000E-001	1.14022E-003	7	...........	-327.66
	655	0.1312	-2.29938E-001	-1.39754E-006	0.00000E+000	-2.30000E-001	1.04022E-003	7	...........	-327.66
	656	0.1314	-2.39988E-001	-1.40279E-006	0.00000E+000	-2.40000E-001	9.40224E-004	7	...........	-327.66
	657	0.1316	-2.49950E-001	-1.40379E-006	0.00000E+000	-2.50000E-001	9.40224E-004	7	...........	-327.66
	658	0.1318	-2.59938E-001	-1.40654E-006	0.00000E+000	-2.60000E-001	1.11522E-003	7	...........	-327.66
	659	0.132	-2.69800E-001	-1.40554E-006	0.00000E+000	-2.70000E-001	1.01522E-003	7	...........	-327.66
	660	0.1322	-2.80000E-001	-1.40929E-006	0.00000E+000	-2.80000E-001	1.04022E-003	7	...........	-327.66
	661	0.1324	-2.89900E-001	-1.41254E-006	0.00000E+000	-2.90000E-001	1.11522E-003	7	...........	-327.66
	662	0.1326	-2.99963E-001	-1.41204E-006	0.00000E+000	-3.00000E-001	1.16522E-003	7	...........	-327.66
	663	0.1328	-3.09700E-001	-1.41279E-006	0.00000E+000	-3.10000E-001	9.90224E-004	7	...........	-327.66
	664	0.133	-3.20038E-001	-1.41229E-006	0.00000E+000	-3.20000E-001	9.40224E-004	7	...........	-327.66
	665	0.1332	-3.29950E-001	-1.41079E-006	0.00000E+000	-3.30000E-001	1.06522E-003	7	...........	-327.66
	666	0.1334	-3.40038E-001	-1.41604E-006	0.00000E+000	-3.40000E-001	9.90224E-004	7	...........	-327.66
	667	0.1336	-3.49863E-001	-1.41504E-006	0.00000E+000	-3.50000E-001	1.11522E-003	7	...........	-327.66
	668	0.1338	-3.59950E-001	-1.42029E-006	0.00000E+000	-3.60000E-001	9.40224E-004	7	...........	-327.66
	669	0.134	-3.69788E-001	-1.41929E-006	0.00000E+000	-3.70000E-001	1.09022E-003	7	...........	-327.66
	670	0.1342	-3.80013E-001	-1.41954E-006	0.00000E+000	-3.80000E-001	1.01522E-003	7	...........	-327.66
	671	0.1344	-3.89800E-001	-1.41929E-006	0.00000E+000	-3.90000E-001	1.01522E-003	7	...........	-327.66
	672	0.1346	-3.99850E-001	-1.42104E-006	0.00000E+000	-4.00000E-001	1.11522E-003	7	...........	-327.66
	673	0.1348	-4.09800E-001	-1.42179E-006	0.00000E+000	-4.10000E-001	1.09022E-003	7	...........	-327.66
	674	0.135	-4.19938E-001	-1.42379E-006	0.00000E+000	-4.20000E-001	1.19022E-003	7	...........	-327.66
	675	0.1352	-4.29775E-001	-1.42279E-006	0.00000E+000	-4.30000E-001	1.24022E-003	7	...........	-327.66
	676	0.1354	-4.39963E-001	-1.42429E-006	0.00000E+000	-4.40000E-001	1.04022E-003	7	...........	-327.66
	677	0.1356	-4.49763E-001	-1.42304E-006	0.00000E+000	-4.50000E-001	1.19022E-003	7	...........	-327.66
	678	0.1358	-4.59963E-001	-1.42404E-006	0.00000E+000	-4.60000E-001	9.65224E-004	7	...........	-327.66
	679	0.136	-4.69738E-001	-1.42104E-006	0.00000E+000	-4.70000E-001	1.11522E-003	7	...........	-327.66
	680	0.1362	-4.79900E-001	-1.42079E-006	0.00000E+000	-4.80000E-001	9.65224E-004	7	...........	-327.66
	681	0.1364	-4.89850E-001	-1.42154E-006	0.00000E+000	-4.90000E-001	1.04022E-003	7	...........	-327.66
	682	0.1366	-4.99875E-001	-1.42079E-006	0.00000E+000	-5.00000E-001	1.09022E-003	7	...........	-327.66
	683	0.1368	-5.09863E-001	-1.41879E-006	0.00000E+000	-5.10000E-001	1.14022E-003	7	...........	-327.66
	684	0.137	-5.19950E-001	-1.41904E-006	0.00000E+000	-5.20000E-001	1.06522E-003	7	...........	-327.66
	685	0.1372	-5.29850E-001	-1.41629E-006	0.00000E+000	-5.30000E-001	1.16522E-003	7	...........	-327.66
	686	0.1374	-5.39975E-001	-1.42004E-006	0.00000E+000	-5.40000E-001	1.14022E-003	7	...........	-327.66
	687	0.1376	-5.49713E-001	-1.41954E-006	0.00000E+000	-5.50000E-001	1.11522E-003	7	...........	-327.66
	688	0.1378	-5.59913E-001	-1.42204E-006	0.00000E+000	-5.60000E-001	1.14022E-003	7	...........	-327.66
	689	0.138	-5.69813E-001	-1.42579E-006	0.00000E+000	-5.70000E-001	1.04022E-003	7	...........	-327.66
	690	0.1382	-5.79875E-001	-1.42804E-006	0.00000E+000	-5.80000E-001	1.04022E-003	7	...........	-327.66
	691	0.1384	-5.89788E-001	-1.43179E-006	0.00000E+000	-5.90000E-001	1.01522E-003	7	...........	-327.66
	692	0.1386	-5.99925E-001	-1.43729E-006	0.00000E+000	-6.00000E-001	1.14022E-003	7	...........	-327.66
	693	0.1388	-6.09888E-001	-1.44029E-006	0.00000E+000	-6.10000E-001	1.14022E-003	7	...........	-327.66
	694	0.139	-6.19900E-001	-1.44679E-006	0.00000E+000	-6.20000E-001	9.90224E-004	7	...........	-327.66
	695	0.1392	-6.29763E-001	-1.45079E-006	0.00000E+000	-6.30000E-001	9.90224E-004	7	...........	-327.66
	696	0.1394	-6.39938E-001	-1.45779E-006	0.00000E+000	-6.40000E-001	1.09022E-003	7	...........	-327.66
	697	0.1396	-6.49738E-001	-1.46130E-006	0.00000E+000	-6.50000E-001	1.16522E-003	7	...........	-327.66
	698	0.1398	-6.59888E-001	-1.46305E-006	0.00000E+000	-6.60000E-001	1.09022E-003	7	...........	-327.66
	699	0.14	-6.69700E-001	-1.46905E-006	0.00000E+000	-6.70000E-001	1.06522E-003	7	...........	-327.66
	700	0.1402	-6.79888E-001	-1.47355E-006	0.00000E+000	-6.80000E-001	1.14022E-003	7	...........	-327.66
	701	0.1404	-6.89688E-001	-1.47605E-006	0.00000E+000	-6.90000E-001	1.06522E-003	7	...........	-327.66
	702	0.1406	-6.99913E-001	-1.48130E-006	0.00000E+000	-7.00000E-001	1.04022E-003	7	...........	-327.66
	703	0.1408	-7.09750E-001	-1.48180E-006	0.00000E+000	-7.10000E-001	1.09022E-003	7	...........	-327.66
	704	0.141	-7.19925E-001	-1.48630E-006	0.00000E+000	-7.20000E-001	1.14022E-003	7	...........	-327.66
	705	0.1412	-7.29813E-001	-1.49155E-006	0.00000E+000	-7.30000E-001	1.16522E-003	7	...........	-327.66
	706	0.1414	-7.39863E-001	-1.49180E-006	0.00000E+000	-7.40000E-001	1.04022E-003	7	...........	-327.66
	707	0.1416	-7.49788E-001	-1.49455E-006	0.00000E+000	-7.50000E-001	1.04022E-003	7	...........	-327.66
	708	0.1418	-7.59838E-001	-1.49530E-006	0.00000E+000	-7.60000E-001	1.21522E-003	7	...........	-327.66
	709	0.142	-7.69838E-001	-1.49380E-006	0.00000E+000	-7.70000E-001	1.19022E-003	7	...........	-327.66
	710	0.1422	-7.79788E-001	-1.48905E-006	0.00000E+000	-7.80000E-001	1.16522E-003	7	...........	-327.66
	711	0.1424	-7.89750E-001	-1.48180E-006	0.00000E+000	-7.90000E-001	1.06522E-003	7	...........	-327.66
	712	0.1426	-7.99838E-001	-1.46655E-006	0.00000E+000	-8.00000E-001	9.65224E-004	7	...........	-327.66
	713	0.1428	-8.09713E-001	-1.44429E-006	0.00000E+000	-8.10000E-001	1.16522E-003	7	...........	-327.66
	714	0.143	-8.19863E-001	-1.41629E-006	0.00000E+000	-8.20000E-001	1.04022E-003	7	...........	-327.66
	715	0.1432	-8.29775E-001	-1.37828E-006	0.00000E+000	-8.30000E-001	1.21522E-003	7	...........	-327.66
	716	0.1434	-8.39888E-001	-1.32628E-006	0.00000E+000	-8.40000E-001	1.19022E-003	7	...........	-327.66
	717	0.1436	-8.49913E-001	-1.25877E-006	0.00000E+000	-8.50000E-001	9.90224E-004	7	...........	-327.66
	718	0.1438	-8.59825E-001	-1.18376E-006	0.00000E+000	-8.60000E-001	1.16522E-003	7	...........	-327.66
	719	0.144	-8.69638E-001	-1.09825E-006	0.00000E+000	-8.70000E-001	1.01522E-003	7	...........	-327.66
	720	0.1442	-8.79913E-001	-1.00948E-006	0.00000E+000	-8.80000E-001	1.11522E-003	7	...........	-327.66
	721	0.1444	-8.89813E-001	-9.20972E-007	0.00000E+000	-8.90000E-001	1.04022E-003	7	...........	-327.66
	722	0.1446	-8.99875E-001	-8.32710E-007	0.00000E+000	-9.00000E-001	1.04022E-003	7	...........	-327.66
	723	0.1448	-8.89763E-001	-3.57645E-007	0.00000E+000	-8.90000E-001	1.16522E-003	7	...........	-327.66
	724	0.145	-8.79838E-001	-8.16072E-008	0.00000E+000	-8.80000E-001	1.01522E-003	7	...........	-327.66
	725	0.1452	-8.69813E-001	1.10919E-007	0.00000E+000	-8.70000E-001	1.11522E-003	7	...........	-327.66
	726	0.1454	-8.59838E-001	2.67440E-007	0.00000E+000	-8.60000E-001	9.90224E-004	7	...........	-327.66
	727	0.1456	-8.49938E-001	4.03709E-007	0.00000E+000	-8.50000E-001	1.09022E-003	7	...........	-327.66
	728	0.1458	-8.39900E-001	5.27226E-007	0.00000E+000	-8.40000E-001	1.11522E-003	7	...........	-327.66
	729	0.146	-8.29713E-001	6.41491E-007	0.00000E+000	-8.30000E-001	1.24022E-003	7	...........	-327.66
	730	0.1462	-8.20013E-001	7.39755E-007	0.00000E+000	-8.20000E-001	1.16522E-003	7	...........	-327.66
	731	0.1464	-8.09863E-001	8.32267E-007	0.00000E+000	-8.10000E-001	1.11522E-003	7	...........	-327.66
	732	0.1466	-7.99813E-001	9.12028E-007	0.00000E+000	-8.00000E-001	1.19022E-003	7	...........	-327.66
	733	0.1468	-7.89738E-001	9.80287E-007	0.00000E+000	-7.90000E-001	1.11522E-003	7	...........	-327.66
	734	0.147	-7.79838E-001	1.04005E-006	0.00000E+000	-7.80000E-001	1.06522E-003	7	...........	-327.66
	735	0.1472	-7.69763E-001	1.08780E-006	0.00000E+000	-7.70000E-001	1.06522E-003	7	...........	-327.66
	736	0.1474	-7.59888E-001	1.12406E-006	0.00000E+000	-7.60000E-001	1.04022E-003	7	...........	-327.66
	737	0.1476	-7.49725E-001	1.14831E-006	0.00000E+000	-7.50000E-001	1.01522E-003	7	...........	-327.66
	738	0.1478	-7.39913E-001	1.16956E-006	0.00000E+000	-7.40000E-001	9.65224E-004	7	...........	-327.66
	739	0.148	-7.29938E-001	1.18407E-006	0.00000E+000	-7.30000E-001	1.04022E-003	7	...........	-327.66
	740	0.1482	-7.19800E-001	1.19307E-006	0.00000E+000	-7.20000E-001	1.06522E-003	7	...........	-327.66
	741	0.1484	-7.09838E-001	1.20132E-006	0.00000E+000	-7.10000E-001	1.24022E-003	7	...........	-327.66
	742	0.1486	-6.99838E-001	1.20682E-006	0.00000E+000	-7.00000E-001	1.06522E-003	7	...........	-327.66
	743	0.1488	-6.89738E-001	1.21057E-006	0.00000E+000	-6.90000E-001	1.14022E-003	7	...........	-327.66
	744	0.149	-6.79775E-001	1.21332E-006	0.00000E+000	-6.80000E-001	1.09022E-003	7	...........	-327.66
	745	0.1492	-6.69725E-001	1.21732E-006	0.00000E+000	-6.70000E-001	1.16522E-003	7	...........	-327.66
	746	0.1494	-6.59838E-001	1.21932E-006	0.00000E+000	-6.60000E-001	9.65224E-004	7	...........	-327.66
	747	0.1496	-6.49788E-001	1.22407E-006	0.00000E+000	-6.50000E-001	1.21522E-003	7	...........	-327.66
	748	0.1498	-6.39838E-001	1.22532E-006	0.00000E+000	-6.40000E-001	1.21522E-003	7	...........	-327.66
	749	0.15	-6.29700E-001	1.22682E-006	0.00000E+000	-6.30000E-001	1.11522E-003	7	...........	-327.66
	750	0.1502	-6.19838E-001	1.22982E-006	0.00000E+000	-6.20000E-001	1.06522E-003	7	...........	-327.66
	751	0.1504	-6.09938E-001	1.23457E-006	0.00000E+000	-6.10000E-001	1.11522E-003	7	...........	-327.66
	752	0.1506	-5.99913E-001	1.23582E-006	0.00000E+000	-6.00000E-001	1.01522E-003	7	...........	-327.66
	753	0.1508	-5.89763E-001	1.23807E-006	0.00000E+000	-5.90000E-001	1.11522E-003	7	...........	-327.66
	754	0.151	-5.79900E-001	1.23607E-006	0.00000E+000	-5.80000E-001	1.01522E-003	7	...........	-327.66
	755	0.1512	-5.69863E-001	1.24132E-006	0.00000E+000	-5.70000E-001	1.21522E-003	7	...........	-327.66
	756	0.1514	-5.59838E-001	1.24407E-006	0.00000E+000	-5.60000E-001	1.16522E-003	7	...........	-327.66
	757	0.1516	-5.49925E-001	1.24282E-006	0.00000E+000	-5.50000E-001	9.40224E-004	7	...........	-327.66
	758	0.1518	-5.39938E-001	1.24107E-006	0.00000E+000	-5.40000E-001	1.19022E-003	7	...........	-327.66
	759	0.152	-5.29925E-001	1.24407E-006	0.00000E+000	-5.30000E-001	1.14022E-003	7	...........	-327.66
	760	0.1522	-5.20013E-001	1.24507E-006	0.00000E+000	-5.20000E-001	1.14022E-003	7	...........	-327.66
	761	0.1524	-5.09725E-001	1.24657E-006	0.00000E+000	-5.10000E-001	1.29022E-003	7	...........	-327.66
	762	0.1526	-4.99825E-001	1.24657E-006	0.00000E+000	-5.00000E-001	1.09022E-003	7	...........	-327.66
	763	0.1528	-4.89863E-001	1.24807E-006	0.00000E+000	-4.90000E-001	1.09022E-003	7	...........	-327.66
	764	0.153	-4.79838E-001	1.25057E-006	0.00000E+000	-4.80000E-001	1.24022E-003	7	...........	-327.66
	765	0.1532	-4.69800E-001	1.25282E-006	0.00000E+000	-4.70000E-001	1.14022E-003	7	...........	-327.66
	766	0.1534	-4.59913E-001	1.25633E-006	0.00000E+000	-4.60000E-001	1.06522E-003	7	...........	-327.66
	767	0.1536	-4.49775E-001	1.26458E-006	0.00000E+000	-4.50000E-001	1.11522E-003	7	...........	-327.66
	768	0.1538	-4.39788E-001	1.26833E-006	0.00000E+000	-4.40000E-001	1.06522E-003	7	...........	-327.66
	769	0.154	-4.29763E-001	1.27233E-006	0.00000E+000	-4.30000E-001	1.01522E-003	7	...........	-327.66
	770	0.1542	-4.19938E-001	1.28033E-006	0.00000E+000	-4.20000E-001	1.01522E-003	7	...........	-327.66
	771	0.1544	-4.09925E-001	1.28533E-006	0.00000E+000	-4.10000E-001	1.01522E-003	7	...........	-327.66
	772	0.1546	-3.99850E-001	1.29308E-006	0.00000E+000	-4.00000E-001	1.04022E-003	7	...........	-327.66
	773	0.1548	-3.89875E-001	1.30033E-006	0.00000E+000	-3.90000E-001	1.06522E-003	7	...........	-327.66
	774	0.155	-3.79963E-001	1.30608E-006	0.00000E+000	-3.80000E-001	1.11522E-003	7	...........	-327.66
	775	0.1552	-3.69788E-001	1.31333E-006	0.00000E+000	-3.70000E-001	1.14022E-003	7	...........	-327.66
	776	0.1554	-3.59963E-001	1.32133E-006	0.00000E+000	-3.60000E-001	1.09022E-003	7	...........	-327.66
	777	0.1556	-3.49788E-001	1.33059E-006	0.00000E+000	-3.50000E-001	1.06522E-003	7	...........	-327.66
	778	0.1558	-3.39925E-001	1.33659E-006	0.00000E+000	-3.40000E-001	1.06522E-003	7	...........	-327.66
	779	0.156	-3.29888E-001	1.34159E-006	0.00000E+000	-3.30000E-001	1.01522E-003	7	...........	-327.66
	780	0.1562	-3.20000E-001	1.34884E-006	0.00000E+000	-3.20000E-001	9.40224E-004	7	...........	-327.66
	781	0.1564	-3.09813E-001	1.35334E-006	0.00000E+000	-3.10000E-001	1.11522E-003	7	...........	-327.66
	782	0.1566	-2.99925E-001	1.36159E-006	0.00000E+000	-3.00000E-001	1.14022E-003	7	...........	-327.66
	783	0.1568	-2.89938E-001	1.36684E-006	0.00000E+000	-2.90000E-001	1.11522E-003	7	...........	-327.66
	784	0.157	-2.79838E-001	1.37059E-006	0.00000E+000	-2.80000E-001	1.01522E-003	7	...........	-327.66
	785	0.1572	-2.69838E-001	1.37709E-006	0.00000E+000	-2.70000E-001	9.90224E-004	7	...........	-327.66
	786	0.1574	-2.59963E-001	1.37859E-006	0.00000E+000	-2.60000E-001	1.09022E-003	7	...........	-327.66
	787	0.1576	-2.49938E-001	1.38684E-006	0.00000E+000	-2.50000E-001	1.09022E-003	7	...........	-327.66
	788	0.1578	-2.39838E-001	1.38859E-006	0.00000E+000	-2.40000E-001	1.06522E-003	7	...........	-327.66
	789	0.158	-2.29825E-001	1.39109E-006	0.00000E+000	-2.30000E-001	1.11522E-003	7	...........	-327.66
	790	0.1582	-2.19888E-001	1.39209E-006	0.00000E+000	-2.20000E-001	1.09022E-003	7	...........	-327.66
	791	0.1584	-2.09800E-001	1.39759E-006	0.00000E+000	-2.10000E-001	1.16522E-003	7	...........	-327.66
	792	0.1586	-2.00013E-001	1.39959E-006	0.00000E+000	-2.00000E-001	1.14022E-003	7	...........	-327.66
	793	0.1588	-1.89925E-001	1.40360E-006	0.00000E+000	-1.90000E-001	1.11522E-003	7	...........	-327.66
	794	0.159	-1.79938E-001	1.40385E-006	0.00000E+000	-1.80000E-001	1.24022E-003	7	...........	-327.66
	795	0.1592	-1.69875E-001	1.40685E-006	0.00000E+000	-1.70000E-001	1.21522E-003	7	...........	-327.66
	796	0.1594	-1.59975E-001	1.40785E-006	0.00000E+000	-1.60000E-001	1.01522E-003	7	...........	-327.66
	797	0.1596	-1.49925E-001	1.41085E-006	0.00000E+000	-1.50000E-001	1.09022E-003	7	...........	-327.66
	798	0.1598	-1.39988E-001	1.41235E-006	0.00000E+000	-1.40000E-001	1.09022E-003	7	...........	-327.66
	799	0.16	-1.30013E-001	1.41185E-006	0.00000E+000	-1.30000E-001	1.04022E-003	7	...........	-327.66
	800	0.1602	-1.20013E-001	1.41535E-006	0.00000E+000	-1.20000E-001	1.01522E-003	7	...........	-327.66
	801	0.1604	-1.09900E-001	1.41610E-006	0.00000E+000	-1.10000E-001	1.11522E-003	7	...........	-327.66
	802	0.1606	-1.00038E-001	1.41435E-006	0.00000E+000	-1.00000E-001	1.19022E-003	7	...........	-327.66
	803	0.1608	-8.99002E-002	1.41660E-006	0.00000E+000	-9.00000E-002	1.14022E-003	7	...........	-327.66
	804	0.161	-7.99627E-002	1.41710E-006	0.00000E+000	-8.00000E-002	1.09022E-003	7	...........	-327.66
	805	0.1612	-6.98377E-002	1.41635E-006	0.00000E+000	-7.00000E-002	1.11522E-003	7	...........	-327.66
	806	0.1614	-5.99127E-002	1.41435E-006	0.00000E+000	-6.00000E-002	1.09022E-003	7	...........	-327.66
	807	0.1616	-5.00002E-002	1.41485E-006	0.00000E+000	-5.00000E-002	1.01522E-003	7	...........	-327.66
	808	0.1618	-3.99002E-002	1.41410E-006	0.00000E+000	-4.00000E-002	1.09022E-003	7	...........	-327.66
	809	0.162	-2.98002E-002	1.41485E-006	0.00000E+000	-3.00000E-002	1.09022E-003	7	...........	-327.66
	810	0.1622	-2.00377E-002	1.41135E-006	0.00000E+000	-2.00000E-002	1.01522E-003	7	...........	-327.66
	811	0.1624	-9.77519E-003	1.41185E-006	0.00000E+000	-1.00000E-002	1.09022E-003	7	...........	-327.66
	812	0.1626	3.73125E-005	1.40835E-006	0.00000E+000	-1.49012E-008	1.11522E-003	7	...........	-327.66
	813	0.1628	1.01373E-002	1.40735E-006	0.00000E+000	9.99999E-003	1.14022E-003	7	...........	-327.66
	814	0.163	2.00748E-002	1.40535E-006	0.00000E+000	2.00000E-002	1.11522E-003	7	...........	-327.66
	815	0.1632	3.00623E-002	1.40285E-006	0.00000E+000	3.00000E-002	9.40224E-004	7	...........	-327.66
	816	0.1634	3.98248E-002	1.40159E-006	0.00000E+000	4.00000E-002	1.01522E-003	7	...........	-327.66
	817	0.1636	5.00623E-002	1.39859E-006	0.00000E+000	5.00000E-002	1.16522E-003	7	...........	-327.66
	818	0.1638	6.00748E-002	1.39659E-006	0.00000E+000	6.00000E-002	1.24022E-003	7	...........	-327.66
	819	0.164	7.01623E-002	1.39459E-006	0.00000E+000	7.00000E-002	1.01522E-003	7	...........	-327.66
	820	0.1642	7.99873E-002	1.39209E-006	0.00000E+000	8.00000E-002	1.09022E-003	7	...........	-327.66
	821	0.1644	9.02248E-002	1.39084E-006	0.00000E+000	9.00000E-002	1.14022E-003	7	...........	-327.66
	822	0.1646	1.00137E-001	1.38909E-006	0.00000E+000	1.00000E-001	1.14022E-003	7	...........	-327.66
	823	0.1648	1.10037E-001	1.38509E-006	0.00000E+000	1.10000E-001	1.01522E-003	7	...........	-327.66
	824	0.165	1.20012E-001	1.38384E-006	0.00000E+000	1.20000E-001	9.40224E-004	7	...........	-327.66
	825	0.1652	1.30250E-001	1.38209E-006	0.00000E+000	1.30000E-001	1.16522E-003	7	...........	-327.66
	826	0.1654	1.40200E-001	1.38234E-006	0.00000E+000	1.40000E-001	1.11522E-003	7	...........	-327.66
	827	0.1656	1.50187E-001	1.38259E-006	0.00000E+000	1.50000E-001	1.06522E-003	7	...........	-327.66
	828	0.1658	1.59987E-001	1.37784E-006	0.00000E+000	1.60000E-001	1.04022E-003	7	...........	-327.66
	829	0.166	1.70075E-001	1.37759E-006	0.00000E+000	1.70000E-001	1.24022E-003	7	...........	-327.66
	830	0.1662	1.80137E-001	1.37684E-006	0.00000E+000	1.80000E-001	1.19022E-003	7	...........	-327.66
	831	0.1664	1.90075E-001	1.37809E-006	0.00000E+000	1.90000E-001	9.90224E-004	7	...........	-327.66
	832	0.1666	2.00062E-001	1.37534E-006	0.00000E+000	2.00000E-001	1.04022E-003	7	...........	-327.66
	833	0.1668	2.10062E-001	1.37459E-006	0.00000E+000	2.10000E-001	1.19022E-003	7	...........	-327.66
	834	0.167	2.19987E-001	1.37034E-006	0.00000E+000	2.20000E-001	1.06522E-003	7	...........	-327.66
	835	0.1672	2.29987E-001	1.37359E-006	0.00000E+000	2.30000E-001	1.14022E-003	7	...........	-327.66
	836	0.1674	2.39975E-001	1.37184E-006	0.00000E+000	2.40000E-001	1.04022E-003	7	...........	-327.66
	837	0.1676	2.50087E-001	1.37209E-006	0.00000E+000	2.50000E-001	1.09022E-003	7	...........	-327.66
	838	0.1678	2.60012E-001	1.36809E-006	0.00000E+000	2.60000E-001	1.06522E-003	7	...........	-327.66
	839	0.168	2.70112E-001	1.36884E-006	0.00000E+000	2.70000E-001	1.24022E-003	7	...........	-327.66
	840	0.1682	2.79987E-001	1.36884E-006	0.00000E+000	2.80000E-001	1.04022E-003	7	...........	-327.66
	841	0.1684	2.90037E-001	1.36709E-006	0.00000E+000	2.90000E-001	1.19022E-003	7	...........	-327.66
	842	0.1686	3.00137E-001	1.36884E-006	0.00000E+000	3.00000E-001	1.09022E-003	7	...........	-327.66
	843	0.1688	3.10137E-001	1.36809E-006	0.00000E+000	3.10000E-001	1.11522E-003	7	...........	-327.66
	844	0.169	3.20012E-001	1.36609E-006	0.00000E+000	3.20000E-001	1.04022E-003	7	...........	-327.66
	845	0.1692	3.30087E-001	1.36784E-006	0.00000E+000	3.30000E-001	1.01522E-003	7	...........	-327.66
	846	0.1694	3.40062E-001	1.36934E-006	0.00000E+000	3.40000E-001	1.06522E-003	7	...........	-327.66
	847	0.1696	3.50162E-001	1.37009E-006	0.00000E+000	3.50000E-001	1.24022E-003	7	...........	-327.66
	848	0.1698	3.60037E-001	1.36734E-006	0.00000E+000	3.60000E-001	1.06522E-003	7	...........	-327.66
	849	0.17	3.70125E-001	1.36959E-006	0.00000E+000	3.70000E-001	1.29022E-003	7	...........	-327.66
	850	0.1702	3.80012E-001	1.36909E-006	0.00000E+000	3.80000E-001	1.11522E-003	7	...........	-327.66
	851	0.1704	3.90050E-001	1.36834E-006	0.00000E+000	3.90000E-001	1.11522E-003	7	...........	-327.66
	852	0.1706	4.00012E-001	1.36809E-006	0.00000E+000	4.00000E-001	1.06522E-003	7	...........	-327.66
	853	0.1708	4.10150E-001	1.36809E-006	0.00000E+000	4.10000E-001	1.09022E-003	7	...........	-327.66
	854	0.171	4.20037E-001	1.36659E-006	0.00000E+000	4.20000E-001	1.14022E-003	7	...........	-327.66
	855	0.1712	4.30137E-001	1.37209E-006	0.00000E+000	4.30000E-001	1.01522E-003	7	...........	-327.66
	856	0.1714	4.39962E-001	1.36634E-006	0.00000E+000	4.40000E-001	1.09022E-003	7	...........	-327.66
	857	0.1716	4.50150E-001	1.36684E-006	0.00000E+000	4.50000E-001	1.06522E-003	7	...........	-327.66
	858	0.1718	4.60112E-001	1.36809E-006	0.00000E+000	4.60000E-001	1.09022E-003	7	...........	-327.66
	859	0.172	4.70037E-001	1.36659E-006	0.00000E+000	4.70000E-001	1.06522E-003	7	...........	-327.66
	860	0.1722	4.80037E-001	1.36909E-006	0.00000E+000	4.80000E-001	9.40224E-004	7	...........	-327.66
	861	0.1724	4.90187E-001	1.37134E-006	0.00000E+000	4.90000E-001	1.09022E-003	7	...........	-327.66
	862	0.1726	5.00037E-001	1.36984E-006	0.00000E+000	5.00000E-001	1.01522E-003	7	...........	-327.66
	863	0.1728	5.10037E-001	1.36759E-006	0.00000E+000	5.10000E-001	1.16522E-003	7	...........	-327.66
	864	0.173	5.20037E-001	1.37059E-006	0.00000E+000	5.20000E-001	1.01522E-003	7	...........	-327.66
	865	0.1732	5.30062E-001	1.37409E-006	0.00000E+000	5.30000E-001	1.01522E-003	7	...........	-327.66
	866	0.1734	5.40037E-001	1.37359E-006	0.00000E+000	5.40000E-001	1.14022E-003	7	...........	-327.66
	867	0.1736	5.50062E-001	1.37734E-006	0.00000E+000	5.50000E-001	1.04022E-003	7	...........	-327.66
	868	0.1738	5.60037E-001	1.37759E-006	0.00000E+000	5.60000E-001	1.06522E-003	7	...........	-327.66
	869	0.174	5.70037E-001	1.38284E-006	0.00000E+000	5.70000E-001	1.14022E-003	7	...........	-327.66
	870	0.1742	5.80050E-001	1.38584E-006	0.00000E+000	5.80000E-001	9.40224E-004	7	...........	-327.66
	871	0.1744	5.90137E-001	1.39134E-006	0.00000E+000	5.90000E-001	1.14022E-003	7	...........	-327.66
	872	0.1746	6.00075E-001	1.39659E-006	0.00000E+000	6.00000E-001	1.11522E-003	7	...........	-327.66
CURVE4	TABLE
	Pt	T	Vf	Im	Vu	Sig	Ach	IERange	Over	Temp
	#	s	V vs. Ref.	A	V	V	V	#	bits	deg C
	873	0.1748	5.89950E-001	9.90525E-009	0.00000E+000	5.90000E-001	1.09022E-003	7	...........	-327.66
	874	0.175	5.79987E-001	-5.47171E-007	0.00000E+000	5.80000E-001	1.01522E-003	7	...........	-327.66
	875	0.1752	5.70050E-001	-7.33196E-007	0.00000E+000	5.70000E-001	1.09022E-003	7	...........	-327.66
	876	0.1754	5.59962E-001	-8.19708E-007	0.00000E+000	5.60000E-001	1.06522E-003	7	...........	-327.66
	877	0.1756	5.50100E-001	-8.65714E-007	0.00000E+000	5.50000E-001	1.16522E-003	7	...........	-327.66
	878	0.1758	5.40000E-001	-8.98969E-007	0.00000E+000	5.40000E-001	9.65224E-004	7	...........	-327.66
	879	0.176	5.30087E-001	-9.20972E-007	0.00000E+000	5.30000E-001	9.90224E-004	7	...........	-327.66
	880	0.1762	5.20025E-001	-9.40474E-007	0.00000E+000	5.20000E-001	9.90224E-004	7	...........	-327.66
	881	0.1764	5.10200E-001	-9.53726E-007	0.00000E+000	5.10000E-001	1.11522E-003	7	...........	-327.66
	882	0.1766	5.00050E-001	-9.65728E-007	0.00000E+000	5.00000E-001	1.01522E-003	7	...........	-327.66
	883	0.1768	4.90025E-001	-9.78479E-007	0.00000E+000	4.90000E-001	1.06522E-003	7	...........	-327.66
	884	0.177	4.80025E-001	-9.86981E-007	0.00000E+000	4.80000E-001	1.09022E-003	7	...........	-327.66
	885	0.1772	4.69962E-001	-9.92981E-007	0.00000E+000	4.70000E-001	1.09022E-003	7	...........	-327.66
	886	0.1774	4.59962E-001	-1.00473E-006	0.00000E+000	4.60000E-001	1.11522E-003	7	...........	-327.66
	887	0.1776	4.50225E-001	-1.01098E-006	0.00000E+000	4.50000E-001	1.14022E-003	7	...........	-327.66
	888	0.1778	4.39937E-001	-1.01573E-006	0.00000E+000	4.40000E-001	1.19022E-003	7	...........	-327.66
	889	0.178	4.30112E-001	-1.02324E-006	0.00000E+000	4.30000E-001	1.11522E-003	7	...........	-327.66
	890	0.1782	4.20037E-001	-1.02899E-006	0.00000E+000	4.20000E-001	1.01522E-003	7	...........	-327.66
	891	0.1784	4.10037E-001	-1.03599E-006	0.00000E+000	4.10000E-001	1.11522E-003	7	...........	-327.66
	892	0.1786	3.99950E-001	-1.04099E-006	0.00000E+000	4.00000E-001	1.11522E-003	7	...........	-327.66
	893	0.1788	3.90000E-001	-1.04724E-006	0.00000E+000	3.90000E-001	9.40224E-004	7	...........	-327.66
	894	0.179	3.79975E-001	-1.05324E-006	0.00000E+000	3.80000E-001	9.65224E-004	7	...........	-327.66
	895	0.1792	3.70087E-001	-1.05949E-006	0.00000E+000	3.70000E-001	1.01522E-003	7	...........	-327.66
	896	0.1794	3.60025E-001	-1.06449E-006	0.00000E+000	3.60000E-001	1.01522E-003	7	...........	-327.66
	897	0.1796	3.50075E-001	-1.07499E-006	0.00000E+000	3.50000E-001	1.06522E-003	7	...........	-327.66
	898	0.1798	3.40025E-001	-1.07724E-006	0.00000E+000	3.40000E-001	1.14022E-003	7	...........	-327.66
	899	0.18	3.30075E-001	-1.08449E-006	0.00000E+000	3.30000E-001	1.01522E-003	7	...........	-327.66
	900	0.1802	3.20000E-001	-1.09450E-006	0.00000E+000	3.20000E-001	1.04022E-003	7	...........	-327.66
