EXPLAIN
TAG	CV
TITLE	LABEL	CV5000	Test Identifier
DATE	LABEL	5/9/2025	Date
TIME	LABEL	15:09:06	Time
NOTES	NOTES	1	Notes...
	
PSTAT	PSTAT	REF600P-43058	Potentiostat
VINIT	POTEN	0.00000E+000	T	Initial E (V)
VLIMIT1	POTEN	-9.00000E-001	F	Scan Limit 1 (V)
VLIMIT2	POTEN	6.00000E-001	F	Scan Limit 2 (V)
VFINAL	POTEN	0.00000E+000	T	Final E (V)
SCANRATE	QUANT	4.99999E+003	Scan Rate (mV/s)
STEPSIZE	QUANT	1.00000E+001	Step Size (mV)
CYCLES	IQUANT	3	Cycles (#)
IMODE	SELECTOR	1	I/E Range Mode
IRANGE	QUANT	1.00000E-002	Max Current (mA)
AREA	QUANT	1.00000E+000	Sample Area (cm^2)
EQDELAY	QUANT	5.00000E+000	Equil. Time (s)
IRCOMP	SELECTOR	0	IRComp
PFCOR	QUANT	5.00000E+001	PF Corr. (ohm)
SAMPLINGMODE	SELECTOR	2	Sampling Mode
EOC	QUANT	0.1578694	Open Circuit (V)
ELECTRODETYPE	SELECTOR	0	Electrode Type
STRIPPING	TOGGLE	F	Used for Stripping
SEQUENCER	TOGGLE	TRUE	Run as Sequence
PSTATMODEL	IQUANT	7	Pstat Model
PSTATSECTION	LABEL	REF600P-43058	Pstat Section
PSTATSERIALNO	LABEL	43058	Pstat Serial Number
CTRLMODE	IQUANT	1	Control Mode
ELECTROMETER	IQUANT	0	RE=0 or CS=1
IESTAB	IQUANT	2	I/E Stability
CASPEED	IQUANT	4	Control Amp Speed
CONVENTION	IQUANT	1	Current Convention
ICHRANGE	IQUANT	2	Ich Range
ICHRANGEMODE	TOGGLE	F	Ich Auto Range
ICHOFFSETENABLE	TOGGLE	F	Ich Offset Enable
ICHOFFSET	QUANT	0	Ich Offset (V)
ICHFILTER	IQUANT	2	Ich Filter
VCHRANGE	IQUANT	2	Vch Range
VCHRANGEMODE	TOGGLE	F	Vch Auto Range
VCHOFFSETENABLE	TOGGLE	F	Vch Offset Enable
VCHOFFSET	QUANT	0	Vch Offset (V)
VCHFILTER	IQUANT	2	Vch Filter
ACHRANGE	IQUANT	2	Ach Range
ACHOFFSETENABLE	TOGGLE	F	Ach Offset Enable
ACHOFFSET	QUANT	0	Ach Offset (V)
ACHFILTER	IQUANT	1	Ach Filter
IERANGELOWERLIMIT	IQUANT	1	I/E Range Lower Limit
IERANGEMODE	TOGGLE	F	I/E AutoRange
IERANGE	IQUANT	7	I/E Range
POSFEEDENABLE	TOGGLE	F	Positive Feedback IR Comp
POSFEEDRESISTANCE	QUANT	0	Positive Feedback Resistance (ohm)
ACHSELECT	IQUANT	4	Ach Select
SENSECABLEID	IQUANT	7	Sense Cable ID
PWRCABLEID	IQUANT	7	Power Cable ID
DCCALDATE	LABEL	5/8/2025	DC Calibration Date
ACCALDATE	LABEL	5/8/2025	AC Calibration Date
THERMOSELECT	IQUANT	1	Thermo Select
FRAMEWORKVERSION	LABEL	7.10.4	Framework Version
INSTRUMENTVERSION	LABEL	5.01	Instrument Version
COMMVERSION	LABEL	5.10	Communications Version
CPUPLDVERSION	LABEL	6.00	CPU PLD Version
CTRLPLDVERSION	LABEL	3.21	CTRL PLD Version
PSTATPLDVERSION	LABEL	0.00	PSTAT PLD Version
CURVE1	TABLE
	Pt	T	Vf	Im	Vu	Sig	Ach	IERange	Over	Temp
	#	s	V vs. Ref.	A	V	V	V	#	bits	deg C
	0	0.002	1.57863E-001	8.61365E-009	0.00000E+000	1.57850E-001	1.41953E-003	7	...........	-327.66
	1	0.004	1.48714E-001	-7.24969E-007	0.00000E+000	1.47850E-001	1.37126E-003	7	...........	-327.66
	2	0.006	1.38694E-001	-1.11138E-006	0.00000E+000	1.37850E-001	1.39367E-003	7	...........	-327.66
	3	0.008	1.28689E-001	-1.38989E-006	0.00000E+000	1.27850E-001	1.41953E-003	7	...........	-327.66
	4	0.01	1.18714E-001	-1.61780E-006	0.00000E+000	1.17850E-001	1.46609E-003	7	...........	-327.66
	5	0.012	1.08708E-001	-1.81498E-006	0.00000E+000	1.07850E-001	1.41953E-003	7	...........	-327.66
	6	0.014	9.86799E-002	-1.98892E-006	0.00000E+000	9.78500E-002	1.45747E-003	7	...........	-327.66
	7	0.016	8.87161E-002	-2.14684E-006	0.00000E+000	8.78500E-002	1.42126E-003	7	...........	-327.66
	8	0.018	7.86773E-002	-2.29184E-006	0.00000E+000	7.78500E-002	1.44367E-003	7	...........	-327.66
	9	0.02	6.87264E-002	-2.42398E-006	0.00000E+000	6.78500E-002	1.46609E-003	7	...........	-327.66
	10	0.022	5.86695E-002	-2.54722E-006	0.00000E+000	5.78500E-002	1.46609E-003	7	...........	-327.66
	11	0.024	4.86816E-002	-2.66004E-006	0.00000E+000	4.78500E-002	1.46953E-003	7	...........	-327.66
	12	0.026	3.87221E-002	-2.76747E-006	0.00000E+000	3.78500E-002	1.45574E-003	7	...........	-327.66
	13	0.028	2.87282E-002	-2.86800E-006	0.00000E+000	2.78500E-002	1.46264E-003	7	...........	-327.66
	14	0.03	1.87058E-002	-2.96286E-006	0.00000E+000	1.78500E-002	1.40402E-003	7	...........	-327.66
	15	0.032	8.69627E-003	-3.05082E-006	0.00000E+000	7.84999E-003	1.45229E-003	7	...........	-327.66
	16	0.034	-1.33476E-003	-3.13531E-006	0.00000E+000	-2.15001E-003	1.37988E-003	7	...........	-327.66
	17	0.036	-1.12736E-002	-3.21403E-006	0.00000E+000	-1.21500E-002	1.44022E-003	7	...........	-327.66
	18	0.038	-2.13529E-002	-3.28994E-006	0.00000E+000	-2.21500E-002	1.45057E-003	7	...........	-327.66
	19	0.04	-3.13003E-002	-3.36298E-006	0.00000E+000	-3.21500E-002	1.47643E-003	7	...........	-327.66
	20	0.042	-4.13054E-002	-3.43111E-006	0.00000E+000	-4.21500E-002	1.47643E-003	7	...........	-327.66
	21	0.044	-5.13055E-002	-3.49798E-006	0.00000E+000	-5.21500E-002	1.46436E-003	7	...........	-327.66
	22	0.046	-6.12805E-002	-3.56184E-006	0.00000E+000	-6.21500E-002	1.47471E-003	7	...........	-327.66
	23	0.048	-7.13141E-002	-3.62459E-006	0.00000E+000	-7.21500E-002	1.46781E-003	7	...........	-327.66
	24	0.05	-8.13193E-002	-3.68356E-006	0.00000E+000	-8.21500E-002	1.39712E-003	7	...........	-327.66
	25	0.052	-9.12874E-002	-3.74173E-006	0.00000E+000	-9.21500E-002	1.45402E-003	7	...........	-327.66
	26	0.054	-1.01370E-001	-3.79842E-006	0.00000E+000	-1.02150E-001	1.43850E-003	7	...........	-327.66
	27	0.056	-1.11295E-001	-3.85246E-006	0.00000E+000	-1.12150E-001	1.46609E-003	7	...........	-327.66
	28	0.058	-1.21327E-001	-3.90723E-006	0.00000E+000	-1.22150E-001	1.41264E-003	7	...........	-327.66
	29	0.06	-1.31278E-001	-3.95855E-006	0.00000E+000	-1.32150E-001	1.48505E-003	7	...........	-327.66
	30	0.062	-1.41287E-001	-4.00961E-006	0.00000E+000	-1.42150E-001	1.42126E-003	7	...........	-327.66
	31	0.064	-1.51337E-001	-4.06115E-006	0.00000E+000	-1.52150E-001	1.40919E-003	7	...........	-327.66
	32	0.066	-1.61355E-001	-4.11060E-006	0.00000E+000	-1.62150E-001	1.51436E-003	7	...........	-327.66
	33	0.068	-1.71268E-001	-4.15918E-006	0.00000E+000	-1.72150E-001	1.40229E-003	7	...........	-327.66
	34	0.07	-1.81339E-001	-4.20765E-006	0.00000E+000	-1.82150E-001	1.40747E-003	7	...........	-327.66
	35	0.072	-1.91303E-001	-4.25547E-006	0.00000E+000	-1.92150E-001	1.41781E-003	7	...........	-327.66
	36	0.074	-2.01344E-001	-4.30211E-006	0.00000E+000	-2.02150E-001	1.45229E-003	7	...........	-327.66
	37	0.076	-2.11250E-001	-4.34929E-006	0.00000E+000	-2.12150E-001	1.45229E-003	7	...........	-327.66
	38	0.078	-2.21267E-001	-4.39271E-006	0.00000E+000	-2.22150E-001	1.39195E-003	7	...........	-327.66
	39	0.08	-2.31293E-001	-4.43892E-006	0.00000E+000	-2.32150E-001	1.44367E-003	7	...........	-327.66
	40	0.082	-2.41221E-001	-4.48202E-006	0.00000E+000	-2.42150E-001	1.48505E-003	7	...........	-327.66
	41	0.084	-2.51243E-001	-4.52626E-006	0.00000E+000	-2.52150E-001	1.40574E-003	7	...........	-327.66
	42	0.086	-2.61266E-001	-4.56896E-006	0.00000E+000	-2.62150E-001	1.41609E-003	7	...........	-327.66
	43	0.088	-2.71241E-001	-4.60915E-006	0.00000E+000	-2.72150E-001	1.41091E-003	7	...........	-327.66
	44	0.09	-2.81301E-001	-4.64930E-006	0.00000E+000	-2.82150E-001	1.43333E-003	7	...........	-327.66
	45	0.092	-2.91221E-001	-4.68803E-006	0.00000E+000	-2.92150E-001	1.39712E-003	7	...........	-327.66
	46	0.094	-3.01283E-001	-4.72667E-006	0.00000E+000	-3.02150E-001	1.43850E-003	7	...........	-327.66
	47	0.096	-3.11305E-001	-4.76371E-006	0.00000E+000	-3.12150E-001	1.37643E-003	7	...........	-327.66
	48	0.098	-3.21268E-001	-4.79952E-006	0.00000E+000	-3.22150E-001	1.39022E-003	7	...........	-327.66
	49	0.1	-3.31280E-001	-4.83217E-006	0.00000E+000	-3.32150E-001	1.38678E-003	7	...........	-327.66
	50	0.102	-3.41302E-001	-4.86543E-006	0.00000E+000	-3.42150E-001	1.40574E-003	7	...........	-327.66
	51	0.104	-3.51292E-001	-4.89669E-006	0.00000E+000	-3.52150E-001	1.44712E-003	7	...........	-327.66
	52	0.106	-3.61304E-001	-4.92513E-006	0.00000E+000	-3.62150E-001	1.42988E-003	7	...........	-327.66
	53	0.108	-3.71241E-001	-4.95448E-006	0.00000E+000	-3.72150E-001	1.38850E-003	7	...........	-327.66
	54	0.11	-3.81295E-001	-4.97898E-006	0.00000E+000	-3.82150E-001	1.41091E-003	7	...........	-327.66
	55	0.112	-3.91288E-001	-5.00450E-006	0.00000E+000	-3.92150E-001	1.47471E-003	7	...........	-327.66
	56	0.114	-4.01304E-001	-5.02730E-006	0.00000E+000	-4.02150E-001	1.44195E-003	7	...........	-327.66
	57	0.116	-4.11239E-001	-5.04685E-006	0.00000E+000	-4.12150E-001	1.37298E-003	7	...........	-327.66
	58	0.118	-4.21282E-001	-5.06625E-006	0.00000E+000	-4.22150E-001	1.40229E-003	7	...........	-327.66
	59	0.12	-4.31284E-001	-5.08294E-006	0.00000E+000	-4.32150E-001	1.43160E-003	7	...........	-327.66
	60	0.122	-4.41276E-001	-5.09850E-006	0.00000E+000	-4.42150E-001	1.43333E-003	7	...........	-327.66
	61	0.124	-4.51236E-001	-5.11089E-006	0.00000E+000	-4.52150E-001	1.41264E-003	7	...........	-327.66
	62	0.126	-4.61270E-001	-5.12241E-006	0.00000E+000	-4.62150E-001	1.40402E-003	7	...........	-327.66
	63	0.128	-4.71201E-001	-5.13155E-006	0.00000E+000	-4.72150E-001	1.44195E-003	7	...........	-327.66
	64	0.13	-4.81257E-001	-5.13993E-006	0.00000E+000	-4.82150E-001	1.46953E-003	7	...........	-327.66
	65	0.132	-4.91232E-001	-5.14505E-006	0.00000E+000	-4.92150E-001	1.45574E-003	7	...........	-327.66
	66	0.134	-5.01236E-001	-5.14895E-006	0.00000E+000	-5.02150E-001	1.37471E-003	7	...........	-327.66
	67	0.136	-5.11287E-001	-5.15114E-006	0.00000E+000	-5.12150E-001	1.42298E-003	7	...........	-327.66
	68	0.138	-5.21280E-001	-5.15045E-006	0.00000E+000	-5.22150E-001	1.44195E-003	7	...........	-327.66
	69	0.14	-5.31251E-001	-5.14743E-006	0.00000E+000	-5.32150E-001	1.44367E-003	7	...........	-327.66
	70	0.142	-5.41292E-001	-5.13957E-006	0.00000E+000	-5.42150E-001	1.42988E-003	7	...........	-327.66
	71	0.144	-5.51247E-001	-5.12978E-006	0.00000E+000	-5.52150E-001	1.41436E-003	7	...........	-327.66
	72	0.146	-5.61262E-001	-5.11345E-006	0.00000E+000	-5.62150E-001	1.43505E-003	7	...........	-327.66
	73	0.148	-5.71236E-001	-5.09320E-006	0.00000E+000	-5.72150E-001	1.46436E-003	7	...........	-327.66
	74	0.15	-5.81229E-001	-5.06589E-006	0.00000E+000	-5.82150E-001	1.41264E-003	7	...........	-327.66
	75	0.152	-5.91293E-001	-5.03169E-006	0.00000E+000	-5.92150E-001	1.40747E-003	7	...........	-327.66
	76	0.154	-6.01224E-001	-4.98817E-006	0.00000E+000	-6.02150E-001	1.40574E-003	7	...........	-327.66
	77	0.156	-6.11261E-001	-4.93423E-006	0.00000E+000	-6.12150E-001	1.44022E-003	7	...........	-327.66
	78	0.158	-6.21228E-001	-4.86871E-006	0.00000E+000	-6.22150E-001	1.42126E-003	7	...........	-327.66
	79	0.16	-6.31208E-001	-4.79006E-006	0.00000E+000	-6.32150E-001	1.46781E-003	7	...........	-327.66
	80	0.162	-6.41238E-001	-4.69855E-006	0.00000E+000	-6.42150E-001	1.44884E-003	7	...........	-327.66
	81	0.164	-6.51164E-001	-4.59248E-006	0.00000E+000	-6.52150E-001	1.40747E-003	7	...........	-327.66
	82	0.166	-6.61242E-001	-4.47003E-006	0.00000E+000	-6.62150E-001	1.38333E-003	7	...........	-327.66
	83	0.168	-6.71234E-001	-4.33291E-006	0.00000E+000	-6.72150E-001	1.43850E-003	7	...........	-327.66
	84	0.17	-6.81206E-001	-4.17828E-006	0.00000E+000	-6.82150E-001	1.42126E-003	7	...........	-327.66
	85	0.172	-6.91238E-001	-4.01083E-006	0.00000E+000	-6.92150E-001	1.47815E-003	7	...........	-327.66
	86	0.174	-7.01198E-001	-3.83039E-006	0.00000E+000	-7.02150E-001	1.48333E-003	7	...........	-327.66
	87	0.176	-7.11247E-001	-3.64302E-006	0.00000E+000	-7.12150E-001	1.51091E-003	7	...........	-327.66
	88	0.178	-7.21275E-001	-3.44512E-006	0.00000E+000	-7.22150E-001	1.42988E-003	7	...........	-327.66
	89	0.18	-7.31198E-001	-3.24295E-006	0.00000E+000	-7.32150E-001	1.44712E-003	7	...........	-327.66
	90	0.182	-7.41290E-001	-3.03787E-006	0.00000E+000	-7.42150E-001	1.37126E-003	7	...........	-327.66
	91	0.184	-7.51248E-001	-2.83472E-006	0.00000E+000	-7.52150E-001	1.44540E-003	7	...........	-327.66
	92	0.186	-7.61257E-001	-2.63595E-006	0.00000E+000	-7.62150E-001	1.46609E-003	7	...........	-327.66
	93	0.188	-7.71250E-001	-2.44605E-006	0.00000E+000	-7.72150E-001	1.44195E-003	7	...........	-327.66
	94	0.19	-7.81207E-001	-2.26325E-006	0.00000E+000	-7.82150E-001	1.46609E-003	7	...........	-327.66
	95	0.192	-7.91253E-001	-2.08681E-006	0.00000E+000	-7.92150E-001	1.40919E-003	7	...........	-327.66
	96	0.194	-8.01252E-001	-1.92748E-006	0.00000E+000	-8.02150E-001	1.43160E-003	7	...........	-327.66
	97	0.196	-8.11228E-001	-1.78304E-006	0.00000E+000	-8.12150E-001	1.43160E-003	7	...........	-327.66
	98	0.198	-8.21279E-001	-1.65463E-006	0.00000E+000	-8.22150E-001	1.37471E-003	7	...........	-327.66
	99	0.2	-8.31228E-001	-1.53560E-006	0.00000E+000	-8.32150E-001	1.41091E-003	7	...........	-327.66
	100	0.202	-8.41262E-001	-1.42825E-006	0.00000E+000	-8.42150E-001	1.41436E-003	7	...........	-327.66
	101	0.204	-8.51230E-001	-1.34085E-006	0.00000E+000	-8.52150E-001	1.40747E-003	7	...........	-327.66
	102	0.206	-8.61260E-001	-1.26123E-006	0.00000E+000	-8.62150E-001	1.40919E-003	7	...........	-327.66
	103	0.208	-8.71294E-001	-1.19124E-006	0.00000E+000	-8.72150E-001	1.39367E-003	7	...........	-327.66
	104	0.21	-8.81217E-001	-1.12551E-006	0.00000E+000	-8.82150E-001	1.42643E-003	7	...........	-327.66
	105	0.212	-8.91231E-001	-1.06850E-006	0.00000E+000	-8.92150E-001	1.40229E-003	7	...........	-327.66
	106	0.214	-9.01271E-001	-1.01716E-006	0.00000E+000	-9.02150E-001	1.46436E-003	7	...........	-327.66
	107	0.216	-8.92823E-001	-8.95992E-007	0.00000E+000	-8.92150E-001	1.50057E-003	7	...........	-327.66
	108	0.218	-8.82741E-001	-8.09550E-007	0.00000E+000	-8.82150E-001	1.49540E-003	7	...........	-327.66
	109	0.22	-8.72846E-001	-7.41902E-007	0.00000E+000	-8.72150E-001	1.51091E-003	7	...........	-327.66
	110	0.222	-8.62812E-001	-6.88447E-007	0.00000E+000	-8.62150E-001	1.44712E-003	7	...........	-327.66
	111	0.224	-8.52805E-001	-6.42165E-007	0.00000E+000	-8.52150E-001	1.42643E-003	7	...........	-327.66
	112	0.226	-8.42813E-001	-6.00383E-007	0.00000E+000	-8.42150E-001	1.42471E-003	7	...........	-327.66
	113	0.228	-8.32816E-001	-5.63119E-007	0.00000E+000	-8.32150E-001	1.44367E-003	7	...........	-327.66
	114	0.23	-8.22840E-001	-5.25804E-007	0.00000E+000	-8.22150E-001	1.37815E-003	7	...........	-327.66
	115	0.232	-8.12773E-001	-4.88954E-007	0.00000E+000	-8.12150E-001	1.42471E-003	7	...........	-327.66
	116	0.234	-8.02822E-001	-4.54622E-007	0.00000E+000	-8.02150E-001	1.40229E-003	7	...........	-327.66
	117	0.236	-7.92810E-001	-4.20635E-007	0.00000E+000	-7.92150E-001	1.47126E-003	7	...........	-327.66
	118	0.238	-7.82780E-001	-3.84026E-007	0.00000E+000	-7.82150E-001	1.46091E-003	7	...........	-327.66
	119	0.24	-7.72774E-001	-3.45193E-007	0.00000E+000	-7.72150E-001	1.42988E-003	7	...........	-327.66
	120	0.242	-7.62798E-001	-3.06153E-007	0.00000E+000	-7.62150E-001	1.45057E-003	7	...........	-327.66
	121	0.244	-7.52846E-001	-2.61871E-007	0.00000E+000	-7.52150E-001	1.45057E-003	7	...........	-327.66
	122	0.246	-7.42886E-001	-2.14969E-007	0.00000E+000	-7.42150E-001	1.41091E-003	7	...........	-327.66
	123	0.248	-7.32823E-001	-1.65393E-007	0.00000E+000	-7.32150E-001	1.46781E-003	7	...........	-327.66
	124	0.25	-7.22855E-001	-1.10437E-007	0.00000E+000	-7.22150E-001	1.41953E-003	7	...........	-327.66
	125	0.252	-7.12842E-001	-5.04289E-008	0.00000E+000	-7.12150E-001	1.46953E-003	7	...........	-327.66
	126	0.254	-7.02789E-001	1.65975E-008	0.00000E+000	-7.02150E-001	1.41091E-003	7	...........	-327.66
	127	0.256	-6.92805E-001	8.93143E-008	0.00000E+000	-6.92150E-001	1.45229E-003	7	...........	-327.66
	128	0.258	-6.82852E-001	1.70550E-007	0.00000E+000	-6.82150E-001	1.46781E-003	7	...........	-327.66
	129	0.26	-6.72846E-001	2.61148E-007	0.00000E+000	-6.72150E-001	1.40057E-003	7	...........	-327.66
	130	0.262	-6.62846E-001	3.61869E-007	0.00000E+000	-6.62150E-001	1.40402E-003	7	...........	-327.66
	131	0.264	-6.52805E-001	4.72832E-007	0.00000E+000	-6.52150E-001	1.43678E-003	7	...........	-327.66
	132	0.266	-6.42874E-001	5.95780E-007	0.00000E+000	-6.42150E-001	1.43160E-003	7	...........	-327.66
	133	0.268	-6.32871E-001	7.33230E-007	0.00000E+000	-6.32150E-001	1.42643E-003	7	...........	-327.66
	134	0.27	-6.22838E-001	8.86388E-007	0.00000E+000	-6.22150E-001	1.46264E-003	7	...........	-327.66
	135	0.272	-6.12849E-001	1.05748E-006	0.00000E+000	-6.12150E-001	1.44022E-003	7	...........	-327.66
	136	0.274	-6.02890E-001	1.24594E-006	0.00000E+000	-6.02150E-001	1.42988E-003	7	...........	-327.66
	137	0.276	-5.92869E-001	1.45585E-006	0.00000E+000	-5.92150E-001	1.47815E-003	7	...........	-327.66
	138	0.278	-5.82866E-001	1.68567E-006	0.00000E+000	-5.82150E-001	1.42126E-003	7	...........	-327.66
	139	0.28	-5.72861E-001	1.93796E-006	0.00000E+000	-5.72150E-001	1.43333E-003	7	...........	-327.66
	140	0.282	-5.62927E-001	2.21379E-006	0.00000E+000	-5.62150E-001	1.44540E-003	7	...........	-327.66
	141	0.284	-5.52861E-001	2.51364E-006	0.00000E+000	-5.52150E-001	1.39884E-003	7	...........	-327.66
	142	0.286	-5.42883E-001	2.83264E-006	0.00000E+000	-5.42150E-001	1.43333E-003	7	...........	-327.66
	143	0.288	-5.32867E-001	3.17467E-006	0.00000E+000	-5.32150E-001	1.40402E-003	7	...........	-327.66
	144	0.29	-5.22918E-001	3.53142E-006	0.00000E+000	-5.22150E-001	1.42643E-003	7	...........	-327.66
	145	0.292	-5.12923E-001	3.89770E-006	0.00000E+000	-5.12150E-001	1.43333E-003	7	...........	-327.66
	146	0.294	-5.02910E-001	4.26087E-006	0.00000E+000	-5.02150E-001	1.41264E-003	7	...........	-327.66
	147	0.296	-4.92869E-001	4.60415E-006	0.00000E+000	-4.92150E-001	1.45057E-003	7	...........	-327.66
	148	0.298	-4.82892E-001	4.91376E-006	0.00000E+000	-4.82150E-001	1.44884E-003	7	...........	-327.66
	149	0.3	-4.72836E-001	5.17573E-006	0.00000E+000	-4.72150E-001	1.43505E-003	7	...........	-327.66
	150	0.302	-4.62905E-001	5.37629E-006	0.00000E+000	-4.62150E-001	1.44367E-003	7	...........	-327.66
	151	0.304	-4.52861E-001	5.51097E-006	0.00000E+000	-4.52150E-001	1.40747E-003	7	...........	-327.66
	152	0.306	-4.42908E-001	5.57699E-006	0.00000E+000	-4.42150E-001	1.45747E-003	7	...........	-327.66
	153	0.308	-4.32907E-001	5.58320E-006	0.00000E+000	-4.32150E-001	1.47988E-003	7	...........	-327.66
	154	0.31	-4.22874E-001	5.54373E-006	0.00000E+000	-4.22150E-001	1.46091E-003	7	...........	-327.66
	155	0.312	-4.12856E-001	5.47172E-006	0.00000E+000	-4.12150E-001	1.47126E-003	7	...........	-327.66
	156	0.314	-4.02946E-001	5.37859E-006	0.00000E+000	-4.02150E-001	1.39367E-003	7	...........	-327.66
	157	0.316	-3.92950E-001	5.27533E-006	0.00000E+000	-3.92150E-001	1.41781E-003	7	...........	-327.66
	158	0.318	-3.82930E-001	5.17194E-006	0.00000E+000	-3.82150E-001	1.47298E-003	7	...........	-327.66
	159	0.32	-3.72850E-001	5.07198E-006	0.00000E+000	-3.72150E-001	1.45402E-003	7	...........	-327.66
	160	0.322	-3.62924E-001	4.97958E-006	0.00000E+000	-3.62150E-001	1.38505E-003	7	...........	-327.66
	161	0.324	-3.52939E-001	4.89692E-006	0.00000E+000	-3.52150E-001	1.37126E-003	7	...........	-327.66
	162	0.326	-3.42955E-001	4.82448E-006	0.00000E+000	-3.42150E-001	1.39367E-003	7	...........	-327.66
	163	0.328	-3.32905E-001	4.76186E-006	0.00000E+000	-3.32150E-001	1.40402E-003	7	...........	-327.66
	164	0.33	-3.22888E-001	4.70750E-006	0.00000E+000	-3.22150E-001	1.38505E-003	7	...........	-327.66
	165	0.332	-3.12921E-001	4.66128E-006	0.00000E+000	-3.12150E-001	1.42298E-003	7	...........	-327.66
	166	0.334	-3.02945E-001	4.62110E-006	0.00000E+000	-3.02150E-001	1.40747E-003	7	...........	-327.66
	167	0.336	-2.92862E-001	4.58803E-006	0.00000E+000	-2.92150E-001	1.39195E-003	7	...........	-327.66
	168	0.338	-2.82935E-001	4.55966E-006	0.00000E+000	-2.82150E-001	1.40229E-003	7	...........	-327.66
	169	0.34	-2.72904E-001	4.53476E-006	0.00000E+000	-2.72150E-001	1.38505E-003	7	...........	-327.66
	170	0.342	-2.62915E-001	4.51447E-006	0.00000E+000	-2.62150E-001	1.39540E-003	7	...........	-327.66
	171	0.344	-2.52887E-001	4.49759E-006	0.00000E+000	-2.52150E-001	1.39712E-003	7	...........	-327.66
	172	0.346	-2.42896E-001	4.48121E-006	0.00000E+000	-2.42150E-001	1.38160E-003	7	...........	-327.66
	173	0.348	-2.32926E-001	4.46650E-006	0.00000E+000	-2.32150E-001	1.46781E-003	7	...........	-327.66
	174	0.35	-2.22910E-001	4.45551E-006	0.00000E+000	-2.22150E-001	1.42298E-003	7	...........	-327.66
	175	0.352	-2.12865E-001	4.44318E-006	0.00000E+000	-2.12150E-001	1.48505E-003	7	...........	-327.66
	176	0.354	-2.02963E-001	4.43329E-006	0.00000E+000	-2.02150E-001	1.46609E-003	7	...........	-327.66
	177	0.356	-1.92940E-001	4.42444E-006	0.00000E+000	-1.92150E-001	1.42471E-003	7	...........	-327.66
	178	0.358	-1.82935E-001	4.41689E-006	0.00000E+000	-1.82150E-001	1.37471E-003	7	...........	-327.66
	179	0.36	-1.72928E-001	4.40794E-006	0.00000E+000	-1.72150E-001	1.41091E-003	7	...........	-327.66
	180	0.362	-1.62967E-001	4.40059E-006	0.00000E+000	-1.62150E-001	1.50747E-003	7	...........	-327.66
	181	0.364	-1.52956E-001	4.39411E-006	0.00000E+000	-1.52150E-001	1.43505E-003	7	...........	-327.66
	182	0.366	-1.42944E-001	4.38781E-006	0.00000E+000	-1.42150E-001	1.42471E-003	7	...........	-327.66
	183	0.368	-1.32928E-001	4.38157E-006	0.00000E+000	-1.32150E-001	1.46091E-003	7	...........	-327.66
	184	0.37	-1.22973E-001	4.37576E-006	0.00000E+000	-1.22150E-001	1.40919E-003	7	...........	-327.66
	185	0.372	-1.12914E-001	4.37228E-006	0.00000E+000	-1.12150E-001	1.37126E-003	7	...........	-327.66
	186	0.374	-1.02961E-001	4.36686E-006	0.00000E+000	-1.02150E-001	1.37126E-003	7	...........	-327.66
	187	0.376	-9.29158E-002	4.36288E-006	0.00000E+000	-9.21500E-002	1.46264E-003	7	...........	-327.66
	188	0.378	-8.29684E-002	4.35798E-006	0.00000E+000	-8.21500E-002	1.45574E-003	7	...........	-327.66
	189	0.38	-7.29511E-002	4.35226E-006	0.00000E+000	-7.21500E-002	1.46264E-003	7	...........	-327.66
	190	0.382	-6.29098E-002	4.34881E-006	0.00000E+000	-6.21500E-002	1.48678E-003	7	...........	-327.66
	191	0.384	-5.28934E-002	4.34270E-006	0.00000E+000	-5.21500E-002	1.46609E-003	7	...........	-327.66
	192	0.386	-4.29313E-002	4.33829E-006	0.00000E+000	-4.21500E-002	1.49884E-003	7	...........	-327.66
	193	0.388	-3.29313E-002	4.33219E-006	0.00000E+000	-3.21500E-002	1.44712E-003	7	...........	-327.66
	194	0.39	-2.29391E-002	4.32643E-006	0.00000E+000	-2.21500E-002	1.47298E-003	7	...........	-327.66
	195	0.392	-1.29072E-002	4.31953E-006	0.00000E+000	-1.21500E-002	1.43678E-003	7	...........	-327.66
	196	0.394	-2.97959E-003	4.31273E-006	0.00000E+000	-2.15001E-003	1.43505E-003	7	...........	-327.66
	197	0.396	7.06610E-003	4.30511E-006	0.00000E+000	7.84999E-003	1.39195E-003	7	...........	-327.66
	198	0.398	1.70704E-002	4.29735E-006	0.00000E+000	1.78500E-002	1.41953E-003	7	...........	-327.66
	199	0.4	2.71092E-002	4.28942E-006	0.00000E+000	2.78500E-002	1.38850E-003	7	...........	-327.66
	200	0.402	3.70902E-002	4.27954E-006	0.00000E+000	3.78500E-002	1.48505E-003	7	...........	-327.66
	201	0.404	4.70833E-002	4.27163E-006	0.00000E+000	4.78500E-002	1.37126E-003	7	...........	-327.66
	202	0.406	5.70773E-002	4.26104E-006	0.00000E+000	5.78500E-002	1.41091E-003	7	...........	-327.66
	203	0.408	6.70894E-002	4.25061E-006	0.00000E+000	6.78500E-002	1.38160E-003	7	...........	-327.66
	204	0.41	7.70644E-002	4.24000E-006	0.00000E+000	7.78500E-002	1.43850E-003	7	...........	-327.66
	205	0.412	8.70532E-002	4.22919E-006	0.00000E+000	8.78500E-002	1.43333E-003	7	...........	-327.66
	206	0.414	9.70739E-002	4.21820E-006	0.00000E+000	9.78500E-002	1.49367E-003	7	...........	-327.66
	207	0.416	1.07091E-001	4.20562E-006	0.00000E+000	1.07850E-001	1.47471E-003	7	...........	-327.66
	208	0.418	1.17061E-001	4.19324E-006	0.00000E+000	1.17850E-001	1.40057E-003	7	...........	-327.66
	209	0.42	1.27092E-001	4.18116E-006	0.00000E+000	1.27850E-001	1.40574E-003	7	...........	-327.66
	210	0.422	1.37094E-001	4.16940E-006	0.00000E+000	1.37850E-001	1.43160E-003	7	...........	-327.66
	211	0.424	1.47129E-001	4.15747E-006	0.00000E+000	1.47850E-001	1.41609E-003	7	...........	-327.66
	212	0.426	1.57057E-001	4.14471E-006	0.00000E+000	1.57850E-001	1.39540E-003	7	...........	-327.66
	213	0.428	1.67096E-001	4.13362E-006	0.00000E+000	1.67850E-001	1.43333E-003	7	...........	-327.66
	214	0.43	1.77098E-001	4.12073E-006	0.00000E+000	1.77850E-001	1.40057E-003	7	...........	-327.66
	215	0.432	1.87132E-001	4.10824E-006	0.00000E+000	1.87850E-001	1.47815E-003	7	...........	-327.66
	216	0.434	1.97070E-001	4.09512E-006	0.00000E+000	1.97850E-001	1.45229E-003	7	...........	-327.66
	217	0.436	2.07054E-001	4.08420E-006	0.00000E+000	2.07850E-001	1.42988E-003	7	...........	-327.66
	218	0.438	2.17058E-001	4.07210E-006	0.00000E+000	2.17850E-001	1.40402E-003	7	...........	-327.66
	219	0.44	2.27101E-001	4.06105E-006	0.00000E+000	2.27850E-001	1.36781E-003	7	...........	-327.66
	220	0.442	2.37041E-001	4.04982E-006	0.00000E+000	2.37850E-001	1.49367E-003	7	...........	-327.66
	221	0.444	2.47043E-001	4.03896E-006	0.00000E+000	2.47850E-001	1.45919E-003	7	...........	-327.66
	222	0.446	2.57056E-001	4.02887E-006	0.00000E+000	2.57850E-001	1.45057E-003	7	...........	-327.66
	223	0.448	2.67083E-001	4.01761E-006	0.00000E+000	2.67850E-001	1.43850E-003	7	...........	-327.66
	224	0.45	2.77001E-001	4.00869E-006	0.00000E+000	2.77850E-001	1.42643E-003	7	...........	-327.66
	225	0.452	2.87021E-001	3.99997E-006	0.00000E+000	2.87850E-001	1.44022E-003	7	...........	-327.66
	226	0.454	2.97032E-001	3.99269E-006	0.00000E+000	2.97850E-001	1.49367E-003	7	...........	-327.66
	227	0.456	3.07095E-001	3.98547E-006	0.00000E+000	3.07850E-001	1.43678E-003	7	...........	-327.66
	228	0.458	3.17034E-001	3.97850E-006	0.00000E+000	3.17850E-001	1.44712E-003	7	...........	-327.66
	229	0.46	3.27049E-001	3.97390E-006	0.00000E+000	3.27850E-001	1.47643E-003	7	...........	-327.66
	230	0.462	3.37027E-001	3.96905E-006	0.00000E+000	3.37850E-001	1.44540E-003	7	...........	-327.66
	231	0.464	3.47124E-001	3.96584E-006	0.00000E+000	3.47850E-001	1.52643E-003	7	...........	-327.66
	232	0.466	3.57026E-001	3.96408E-006	0.00000E+000	3.57850E-001	1.40402E-003	7	...........	-327.66
	233	0.468	3.67041E-001	3.96203E-006	0.00000E+000	3.67850E-001	1.41953E-003	7	...........	-327.66
	234	0.47	3.77064E-001	3.96293E-006	0.00000E+000	3.77850E-001	1.41953E-003	7	...........	-327.66
	235	0.472	3.87057E-001	3.96503E-006	0.00000E+000	3.87850E-001	1.50057E-003	7	...........	-327.66
	236	0.474	3.97042E-001	3.96800E-006	0.00000E+000	3.97850E-001	1.49884E-003	7	...........	-327.66
	237	0.476	4.07044E-001	3.97203E-006	0.00000E+000	4.07850E-001	1.45229E-003	7	...........	-327.66
	238	0.478	4.17019E-001	3.97905E-006	0.00000E+000	4.17850E-001	1.47126E-003	7	...........	-327.66
	239	0.48	4.27086E-001	3.98521E-006	0.00000E+000	4.27850E-001	1.41953E-003	7	...........	-327.66
	240	0.482	4.36983E-001	3.99347E-006	0.00000E+000	4.37850E-001	1.47298E-003	7	...........	-327.66
	241	0.484	4.47050E-001	4.00486E-006	0.00000E+000	4.47850E-001	1.47815E-003	7	...........	-327.66
	242	0.486	4.57032E-001	4.01631E-006	0.00000E+000	4.57850E-001	1.41781E-003	7	...........	-327.66
	243	0.488	4.67045E-001	4.02987E-006	0.00000E+000	4.67850E-001	1.41609E-003	7	...........	-327.66
	244	0.49	4.77008E-001	4.04482E-006	0.00000E+000	4.77850E-001	1.45747E-003	7	...........	-327.66
	245	0.492	4.86998E-001	4.06251E-006	0.00000E+000	4.87850E-001	1.41609E-003	7	...........	-327.66
	246	0.494	4.97010E-001	4.08131E-006	0.00000E+000	4.97850E-001	1.42815E-003	7	...........	-327.66
	247	0.496	5.07038E-001	4.10159E-006	0.00000E+000	5.07850E-001	1.41781E-003	7	...........	-327.66
	248	0.498	5.17000E-001	4.12379E-006	0.00000E+000	5.17850E-001	1.45574E-003	7	...........	-327.66
	249	0.5	5.27073E-001	4.14823E-006	0.00000E+000	5.27850E-001	1.44712E-003	7	...........	-327.66
	250	0.502	5.37020E-001	4.17318E-006	0.00000E+000	5.37850E-001	1.43333E-003	7	...........	-327.66
	251	0.504	5.47055E-001	4.20103E-006	0.00000E+000	5.47850E-001	1.42126E-003	7	...........	-327.66
	252	0.506	5.57018E-001	4.22940E-006	0.00000E+000	5.57850E-001	1.46953E-003	7	...........	-327.66
	253	0.508	5.66973E-001	4.26043E-006	0.00000E+000	5.67850E-001	1.42988E-003	7	...........	-327.66
	254	0.51	5.77015E-001	4.29416E-006	0.00000E+000	5.77850E-001	1.44367E-003	7	...........	-327.66
	255	0.512	5.87054E-001	4.32779E-006	0.00000E+000	5.87850E-001	1.41609E-003	7	...........	-327.66
	256	0.514	5.97013E-001	4.36271E-006	0.00000E+000	5.97850E-001	1.42126E-003	7	...........	-327.66
CURVE2	TABLE
	Pt	T	Vf	Im	Vu	Sig	Ach	IERange	Over	Temp
	#	s	V vs. Ref.	A	V	V	V	#	bits	deg C
	257	0.516	5.90582E-001	3.07200E-006	0.00000E+000	5.90000E-001	1.45747E-003	7	...........	-327.66
	258	0.518	5.80766E-001	2.20526E-006	0.00000E+000	5.80000E-001	1.44195E-003	7	...........	-327.66
	259	0.52	5.70762E-001	1.59840E-006	0.00000E+000	5.70000E-001	1.47988E-003	7	...........	-327.66
	260	0.522	5.60776E-001	1.10700E-006	0.00000E+000	5.60000E-001	1.49022E-003	7	...........	-327.66
	261	0.524	5.50783E-001	6.89068E-007	0.00000E+000	5.50000E-001	1.48505E-003	7	...........	-327.66
	262	0.526	5.40762E-001	3.22812E-007	0.00000E+000	5.40000E-001	1.42298E-003	7	...........	-327.66
	263	0.528	5.30764E-001	-4.61229E-009	0.00000E+000	5.30000E-001	1.43678E-003	7	...........	-327.66
	264	0.53	5.20754E-001	-2.99877E-007	0.00000E+000	5.20000E-001	1.40747E-003	7	...........	-327.66
	265	0.532	5.10764E-001	-5.65292E-007	0.00000E+000	5.10000E-001	1.47471E-003	7	...........	-327.66
	266	0.534	5.00808E-001	-8.06601E-007	0.00000E+000	5.00000E-001	1.41609E-003	7	...........	-327.66
	267	0.536	4.90769E-001	-1.02710E-006	0.00000E+000	4.90000E-001	1.45402E-003	7	...........	-327.66
	268	0.538	4.80757E-001	-1.22883E-006	0.00000E+000	4.80000E-001	1.38678E-003	7	...........	-327.66
	269	0.54	4.70792E-001	-1.41237E-006	0.00000E+000	4.70000E-001	1.38505E-003	7	...........	-327.66
	270	0.542	4.60773E-001	-1.58131E-006	0.00000E+000	4.60000E-001	1.42126E-003	7	...........	-327.66
	271	0.544	4.50850E-001	-1.73714E-006	0.00000E+000	4.50000E-001	1.43505E-003	7	...........	-327.66
	272	0.546	4.40757E-001	-1.88101E-006	0.00000E+000	4.40000E-001	1.38850E-003	7	...........	-327.66
	273	0.548	4.30770E-001	-2.01235E-006	0.00000E+000	4.30000E-001	1.39022E-003	7	...........	-327.66
	274	0.55	4.20823E-001	-2.13559E-006	0.00000E+000	4.20000E-001	1.35574E-003	7	...........	-327.66
	275	0.552	4.10778E-001	-2.24871E-006	0.00000E+000	4.10000E-001	1.36609E-003	7	...........	-327.66
	276	0.554	4.00787E-001	-2.35535E-006	0.00000E+000	4.00000E-001	1.39712E-003	7	...........	-327.66
	277	0.556	3.90786E-001	-2.45357E-006	0.00000E+000	3.90000E-001	1.39367E-003	7	...........	-327.66
	278	0.558	3.80803E-001	-2.54413E-006	0.00000E+000	3.80000E-001	1.47643E-003	7	...........	-327.66
	279	0.56	3.70798E-001	-2.63111E-006	0.00000E+000	3.70000E-001	1.47298E-003	7	...........	-327.66
	280	0.562	3.60790E-001	-2.71165E-006	0.00000E+000	3.60000E-001	1.41781E-003	7	...........	-327.66
	281	0.564	3.50814E-001	-2.78823E-006	0.00000E+000	3.50000E-001	1.42126E-003	7	...........	-327.66
	282	0.566	3.40813E-001	-2.85988E-006	0.00000E+000	3.40000E-001	1.40402E-003	7	...........	-327.66
	283	0.568	3.30795E-001	-2.92753E-006	0.00000E+000	3.30000E-001	1.43333E-003	7	...........	-327.66
	284	0.57	3.20808E-001	-2.99343E-006	0.00000E+000	3.20000E-001	1.46609E-003	7	...........	-327.66
	285	0.572	3.10796E-001	-3.05455E-006	0.00000E+000	3.10000E-001	1.45919E-003	7	...........	-327.66
	286	0.574	3.00811E-001	-3.11400E-006	0.00000E+000	3.00000E-001	1.49022E-003	7	...........	-327.66
	287	0.576	2.90795E-001	-3.16882E-006	0.00000E+000	2.90000E-001	1.45574E-003	7	...........	-327.66
	288	0.578	2.80765E-001	-3.22215E-006	0.00000E+000	2.80000E-001	1.49884E-003	7	...........	-327.66
	289	0.58	2.70872E-001	-3.27461E-006	0.00000E+000	2.70000E-001	1.52988E-003	7	...........	-327.66
	290	0.582	2.60808E-001	-3.32534E-006	0.00000E+000	2.60000E-001	1.44367E-003	7	...........	-327.66
	291	0.584	2.50861E-001	-3.37212E-006	0.00000E+000	2.50000E-001	1.48678E-003	7	...........	-327.66
	292	0.586	2.40808E-001	-3.41939E-006	0.00000E+000	2.40000E-001	1.39712E-003	7	...........	-327.66
	293	0.588	2.30797E-001	-3.46560E-006	0.00000E+000	2.30000E-001	1.40747E-003	7	...........	-327.66
	294	0.59	2.20814E-001	-3.50807E-006	0.00000E+000	2.20000E-001	1.42988E-003	7	...........	-327.66
	295	0.592	2.10780E-001	-3.55125E-006	0.00000E+000	2.10000E-001	1.45229E-003	7	...........	-327.66
	296	0.594	2.00794E-001	-3.59260E-006	0.00000E+000	2.00000E-001	1.46436E-003	7	...........	-327.66
	297	0.596	1.90857E-001	-3.63287E-006	0.00000E+000	1.90000E-001	1.44540E-003	7	...........	-327.66
	298	0.598	1.80819E-001	-3.67232E-006	0.00000E+000	1.80000E-001	1.35402E-003	7	...........	-327.66
	299	0.6	1.70878E-001	-3.71057E-006	0.00000E+000	1.70000E-001	1.48160E-003	7	...........	-327.66
	300	0.602	1.60816E-001	-3.74812E-006	0.00000E+000	1.60000E-001	1.43333E-003	7	...........	-327.66
	301	0.604	1.50826E-001	-3.78413E-006	0.00000E+000	1.50000E-001	1.42298E-003	7	...........	-327.66
	302	0.606	1.40907E-001	-3.81913E-006	0.00000E+000	1.40000E-001	1.45402E-003	7	...........	-327.66
	303	0.608	1.30860E-001	-3.85300E-006	0.00000E+000	1.30000E-001	1.40747E-003	7	...........	-327.66
	304	0.61	1.20852E-001	-3.88744E-006	0.00000E+000	1.20000E-001	1.45747E-003	7	...........	-327.66
	305	0.612	1.10832E-001	-3.91885E-006	0.00000E+000	1.10000E-001	1.48505E-003	7	...........	-327.66
	306	0.614	1.00820E-001	-3.95113E-006	0.00000E+000	1.00000E-001	1.49540E-003	7	...........	-327.66
	307	0.616	9.08756E-002	-3.98207E-006	0.00000E+000	9.00000E-002	1.51436E-003	7	...........	-327.66
	308	0.618	8.08195E-002	-4.01180E-006	0.00000E+000	8.00000E-002	1.43505E-003	7	...........	-327.66
	309	0.62	7.08118E-002	-4.04192E-006	0.00000E+000	7.00000E-002	1.46609E-003	7	...........	-327.66
	310	0.622	6.08540E-002	-4.06930E-006	0.00000E+000	6.00000E-002	1.41609E-003	7	...........	-327.66
	311	0.624	5.08316E-002	-4.09708E-006	0.00000E+000	5.00000E-002	1.39540E-003	7	...........	-327.66
	312	0.626	4.08187E-002	-4.12393E-006	0.00000E+000	4.00000E-002	1.45402E-003	7	...........	-327.66
	313	0.628	3.08377E-002	-4.15056E-006	0.00000E+000	3.00000E-002	1.43850E-003	7	...........	-327.66
	314	0.63	2.08359E-002	-4.17706E-006	0.00000E+000	2.00000E-002	1.45747E-003	7	...........	-327.66
	315	0.632	1.08411E-002	-4.20156E-006	0.00000E+000	9.99999E-003	1.46781E-003	7	...........	-327.66
	316	0.634	8.16962E-004	-4.22603E-006	0.00000E+000	-1.49012E-008	1.46436E-003	7	...........	-327.66
	317	0.636	-9.12873E-003	-4.25160E-006	0.00000E+000	-1.00000E-002	1.48333E-003	7	...........	-327.66
	318	0.638	-1.91382E-002	-4.27388E-006	0.00000E+000	-2.00000E-002	1.50574E-003	7	...........	-327.66
	319	0.64	-2.91667E-002	-4.29635E-006	0.00000E+000	-3.00000E-002	1.45402E-003	7	...........	-327.66
	320	0.642	-3.91192E-002	-4.32001E-006	0.00000E+000	-4.00000E-002	1.50229E-003	7	...........	-327.66
	321	0.644	-4.92011E-002	-4.34119E-006	0.00000E+000	-5.00000E-002	1.48505E-003	7	...........	-327.66
	322	0.646	-5.91468E-002	-4.36414E-006	0.00000E+000	-6.00000E-002	1.47471E-003	7	...........	-327.66
	323	0.648	-6.91382E-002	-4.38457E-006	0.00000E+000	-7.00000E-002	1.33160E-003	7	...........	-327.66
	324	0.65	-7.91891E-002	-4.40402E-006	0.00000E+000	-8.00000E-002	1.42126E-003	7	...........	-327.66
	325	0.652	-8.91356E-002	-4.42442E-006	0.00000E+000	-9.00000E-002	1.38333E-003	7	...........	-327.66
	326	0.654	-9.91710E-002	-4.44518E-006	0.00000E+000	-1.00000E-001	1.42471E-003	7	...........	-327.66
	327	0.656	-1.09169E-001	-4.46438E-006	0.00000E+000	-1.10000E-001	1.49540E-003	7	...........	-327.66
	328	0.658	-1.19149E-001	-4.48217E-006	0.00000E+000	-1.20000E-001	1.47988E-003	7	...........	-327.66
	329	0.66	-1.29210E-001	-4.50023E-006	0.00000E+000	-1.30000E-001	1.40919E-003	7	...........	-327.66
	330	0.662	-1.39101E-001	-4.51793E-006	0.00000E+000	-1.40000E-001	1.42471E-003	7	...........	-327.66
	331	0.664	-1.49198E-001	-4.53490E-006	0.00000E+000	-1.50000E-001	1.41436E-003	7	...........	-327.66
	332	0.666	-1.59199E-001	-4.55128E-006	0.00000E+000	-1.60000E-001	1.45229E-003	7	...........	-327.66
	333	0.668	-1.69130E-001	-4.56604E-006	0.00000E+000	-1.70000E-001	1.44022E-003	7	...........	-327.66
	334	0.67	-1.79196E-001	-4.58222E-006	0.00000E+000	-1.80000E-001	1.51436E-003	7	...........	-327.66
	335	0.672	-1.89096E-001	-4.59632E-006	0.00000E+000	-1.90000E-001	1.42815E-003	7	...........	-327.66
	336	0.674	-1.99169E-001	-4.61076E-006	0.00000E+000	-2.00000E-001	1.48160E-003	7	...........	-327.66
	337	0.676	-2.09144E-001	-4.62286E-006	0.00000E+000	-2.10000E-001	1.42815E-003	7	...........	-327.66
	338	0.678	-2.19092E-001	-4.63498E-006	0.00000E+000	-2.20000E-001	1.51609E-003	7	...........	-327.66
	339	0.68	-2.29142E-001	-4.64654E-006	0.00000E+000	-2.30000E-001	1.47815E-003	7	...........	-327.66
	340	0.682	-2.39173E-001	-4.65623E-006	0.00000E+000	-2.40000E-001	1.44540E-003	7	...........	-327.66
	341	0.684	-2.49147E-001	-4.66751E-006	0.00000E+000	-2.50000E-001	1.40402E-003	7	...........	-327.66
	342	0.686	-2.59151E-001	-4.67563E-006	0.00000E+000	-2.60000E-001	1.47988E-003	7	...........	-327.66
	343	0.688	-2.69083E-001	-4.68291E-006	0.00000E+000	-2.70000E-001	1.42815E-003	7	...........	-327.66
	344	0.69	-2.79186E-001	-4.69022E-006	0.00000E+000	-2.80000E-001	1.38850E-003	7	...........	-327.66
	345	0.692	-2.89136E-001	-4.69582E-006	0.00000E+000	-2.90000E-001	1.45919E-003	7	...........	-327.66
	346	0.694	-2.99124E-001	-4.70113E-006	0.00000E+000	-3.00000E-001	1.39712E-003	7	...........	-327.66
	347	0.696	-3.09133E-001	-4.70491E-006	0.00000E+000	-3.10000E-001	1.45574E-003	7	...........	-327.66
	348	0.698	-3.19152E-001	-4.70862E-006	0.00000E+000	-3.20000E-001	1.40229E-003	7	...........	-327.66
	349	0.7	-3.29167E-001	-4.71051E-006	0.00000E+000	-3.30000E-001	1.45229E-003	7	...........	-327.66
	350	0.702	-3.39166E-001	-4.71353E-006	0.00000E+000	-3.40000E-001	1.49884E-003	7	...........	-327.66
	351	0.704	-3.49130E-001	-4.71413E-006	0.00000E+000	-3.50000E-001	1.43160E-003	7	...........	-327.66
	352	0.706	-3.59179E-001	-4.71437E-006	0.00000E+000	-3.60000E-001	1.41436E-003	7	...........	-327.66
	353	0.708	-3.69026E-001	-4.71432E-006	0.00000E+000	-3.70000E-001	1.48678E-003	7	...........	-327.66
	354	0.71	-3.79157E-001	-4.71418E-006	0.00000E+000	-3.80000E-001	1.40919E-003	7	...........	-327.66
	355	0.712	-3.89123E-001	-4.71220E-006	0.00000E+000	-3.90000E-001	1.43160E-003	7	...........	-327.66
	356	0.714	-3.99130E-001	-4.71053E-006	0.00000E+000	-4.00000E-001	1.46264E-003	7	...........	-327.66
	357	0.716	-4.09160E-001	-4.70786E-006	0.00000E+000	-4.10000E-001	1.44712E-003	7	...........	-327.66
	358	0.718	-4.19103E-001	-4.70475E-006	0.00000E+000	-4.20000E-001	1.40919E-003	7	...........	-327.66
	359	0.72	-4.29135E-001	-4.70246E-006	0.00000E+000	-4.30000E-001	1.43333E-003	7	...........	-327.66
	360	0.722	-4.39160E-001	-4.69761E-006	0.00000E+000	-4.40000E-001	1.47471E-003	7	...........	-327.66
	361	0.724	-4.49094E-001	-4.69279E-006	0.00000E+000	-4.50000E-001	1.45574E-003	7	...........	-327.66
	362	0.726	-4.59125E-001	-4.68887E-006	0.00000E+000	-4.60000E-001	1.38333E-003	7	...........	-327.66
	363	0.728	-4.69041E-001	-4.68441E-006	0.00000E+000	-4.70000E-001	1.39712E-003	7	...........	-327.66
	364	0.73	-4.79100E-001	-4.67868E-006	0.00000E+000	-4.80000E-001	1.44022E-003	7	...........	-327.66
	365	0.732	-4.89105E-001	-4.67228E-006	0.00000E+000	-4.90000E-001	1.42471E-003	7	...........	-327.66
	366	0.734	-4.99076E-001	-4.66504E-006	0.00000E+000	-5.00000E-001	1.41091E-003	7	...........	-327.66
	367	0.736	-5.09093E-001	-4.65682E-006	0.00000E+000	-5.10000E-001	1.42643E-003	7	...........	-327.66
	368	0.738	-5.19157E-001	-4.64619E-006	0.00000E+000	-5.20000E-001	1.44540E-003	7	...........	-327.66
	369	0.74	-5.29118E-001	-4.63300E-006	0.00000E+000	-5.30000E-001	1.42126E-003	7	...........	-327.66
	370	0.742	-5.39151E-001	-4.61810E-006	0.00000E+000	-5.40000E-001	1.44884E-003	7	...........	-327.66
	371	0.744	-5.49067E-001	-4.59815E-006	0.00000E+000	-5.50000E-001	1.46781E-003	7	...........	-327.66
	372	0.746	-5.59143E-001	-4.57530E-006	0.00000E+000	-5.60000E-001	1.39712E-003	7	...........	-327.66
	373	0.748	-5.69124E-001	-4.54725E-006	0.00000E+000	-5.70000E-001	1.41609E-003	7	...........	-327.66
	374	0.75	-5.79067E-001	-4.51216E-006	0.00000E+000	-5.80000E-001	1.44540E-003	7	...........	-327.66
	375	0.752	-5.89140E-001	-4.47136E-006	0.00000E+000	-5.90000E-001	1.41436E-003	7	...........	-327.66
	376	0.754	-5.99105E-001	-4.42220E-006	0.00000E+000	-6.00000E-001	1.39712E-003	7	...........	-327.66
	377	0.756	-6.09141E-001	-4.36291E-006	0.00000E+000	-6.10000E-001	1.43333E-003	7	...........	-327.66
	378	0.758	-6.19130E-001	-4.29461E-006	0.00000E+000	-6.20000E-001	1.45402E-003	7	...........	-327.66
	379	0.76	-6.29067E-001	-4.21313E-006	0.00000E+000	-6.30000E-001	1.45747E-003	7	...........	-327.66
	380	0.762	-6.39136E-001	-4.12307E-006	0.00000E+000	-6.40000E-001	1.42988E-003	7	...........	-327.66
	381	0.764	-6.49114E-001	-4.01957E-006	0.00000E+000	-6.50000E-001	1.45919E-003	7	...........	-327.66
	382	0.766	-6.59096E-001	-3.90307E-006	0.00000E+000	-6.60000E-001	1.37988E-003	7	...........	-327.66
	383	0.768	-6.69065E-001	-3.77457E-006	0.00000E+000	-6.70000E-001	1.39195E-003	7	...........	-327.66
	384	0.77	-6.79049E-001	-3.63873E-006	0.00000E+000	-6.80000E-001	1.43850E-003	7	...........	-327.66
	385	0.772	-6.89106E-001	-3.49079E-006	0.00000E+000	-6.90000E-001	1.42298E-003	7	...........	-327.66
	386	0.774	-6.99110E-001	-3.33783E-006	0.00000E+000	-7.00000E-001	1.39022E-003	7	...........	-327.66
	387	0.776	-7.09067E-001	-3.17910E-006	0.00000E+000	-7.10000E-001	1.39884E-003	7	...........	-327.66
	388	0.778	-7.19147E-001	-3.01206E-006	0.00000E+000	-7.20000E-001	1.41781E-003	7	...........	-327.66
	389	0.78	-7.29058E-001	-2.84647E-006	0.00000E+000	-7.30000E-001	1.38505E-003	7	...........	-327.66
	390	0.782	-7.39120E-001	-2.67896E-006	0.00000E+000	-7.40000E-001	1.41609E-003	7	...........	-327.66
	391	0.784	-7.49095E-001	-2.51545E-006	0.00000E+000	-7.50000E-001	1.42643E-003	7	...........	-327.66
	392	0.786	-7.59098E-001	-2.35266E-006	0.00000E+000	-7.60000E-001	1.42815E-003	7	...........	-327.66
	393	0.788	-7.69132E-001	-2.19957E-006	0.00000E+000	-7.70000E-001	1.45747E-003	7	...........	-327.66
	394	0.79	-7.79096E-001	-2.05308E-006	0.00000E+000	-7.80000E-001	1.40057E-003	7	...........	-327.66
	395	0.792	-7.89118E-001	-1.91087E-006	0.00000E+000	-7.90000E-001	1.37643E-003	7	...........	-327.66
	396	0.794	-7.99151E-001	-1.78011E-006	0.00000E+000	-8.00000E-001	1.43333E-003	7	...........	-327.66
	397	0.796	-8.09064E-001	-1.66272E-006	0.00000E+000	-8.10000E-001	1.46781E-003	7	...........	-327.66
	398	0.798	-8.19111E-001	-1.55455E-006	0.00000E+000	-8.20000E-001	1.37298E-003	7	...........	-327.66
	399	0.8	-8.29037E-001	-1.45553E-006	0.00000E+000	-8.30000E-001	1.41264E-003	7	...........	-327.66
	400	0.802	-8.39135E-001	-1.36844E-006	0.00000E+000	-8.40000E-001	1.48333E-003	7	...........	-327.66
	401	0.804	-8.49162E-001	-1.28863E-006	0.00000E+000	-8.50000E-001	1.47126E-003	7	...........	-327.66
	402	0.806	-8.59088E-001	-1.21993E-006	0.00000E+000	-8.60000E-001	1.50229E-003	7	...........	-327.66
	403	0.808	-8.69119E-001	-1.15603E-006	0.00000E+000	-8.70000E-001	1.40919E-003	7	...........	-327.66
	404	0.81	-8.79162E-001	-1.10011E-006	0.00000E+000	-8.80000E-001	1.43333E-003	7	...........	-327.66
	405	0.812	-8.89122E-001	-1.04772E-006	0.00000E+000	-8.90000E-001	1.41436E-003	7	...........	-327.66
	406	0.814	-8.99143E-001	-1.00020E-006	0.00000E+000	-9.00000E-001	1.36436E-003	7	...........	-327.66
	407	0.816	-8.90686E-001	-8.82732E-007	0.00000E+000	-8.90000E-001	1.45574E-003	7	...........	-327.66
	408	0.818	-8.80668E-001	-8.00290E-007	0.00000E+000	-8.80000E-001	1.42815E-003	7	...........	-327.66
	409	0.82	-8.70712E-001	-7.35246E-007	0.00000E+000	-8.70000E-001	1.41781E-003	7	...........	-327.66
	410	0.822	-8.60651E-001	-6.81153E-007	0.00000E+000	-8.60000E-001	1.41264E-003	7	...........	-327.66
	411	0.824	-8.50694E-001	-6.33077E-007	0.00000E+000	-8.50000E-001	1.39540E-003	7	...........	-327.66
	412	0.826	-8.40671E-001	-5.88278E-007	0.00000E+000	-8.40000E-001	1.46091E-003	7	...........	-327.66
	413	0.828	-8.30614E-001	-5.49169E-007	0.00000E+000	-8.30000E-001	1.41953E-003	7	...........	-327.66
	414	0.83	-8.20711E-001	-5.12285E-007	0.00000E+000	-8.20000E-001	1.47643E-003	7	...........	-327.66
	415	0.832	-8.10619E-001	-4.75573E-007	0.00000E+000	-8.10000E-001	1.45057E-003	7	...........	-327.66
	416	0.834	-8.00704E-001	-4.39447E-007	0.00000E+000	-8.00000E-001	1.41091E-003	7	...........	-327.66
	417	0.836	-7.90642E-001	-4.02684E-007	0.00000E+000	-7.90000E-001	1.45402E-003	7	...........	-327.66
	418	0.838	-7.80610E-001	-3.64179E-007	0.00000E+000	-7.80000E-001	1.48850E-003	7	...........	-327.66
	419	0.84	-7.70626E-001	-3.24880E-007	0.00000E+000	-7.70000E-001	1.41264E-003	7	...........	-327.66
	420	0.842	-7.60648E-001	-2.82633E-007	0.00000E+000	-7.60000E-001	1.46609E-003	7	...........	-327.66
	421	0.844	-7.50674E-001	-2.36282E-007	0.00000E+000	-7.50000E-001	1.45229E-003	7	...........	-327.66
	422	0.846	-7.40745E-001	-1.87068E-007	0.00000E+000	-7.40000E-001	1.47643E-003	7	...........	-327.66
	423	0.848	-7.30699E-001	-1.34354E-007	0.00000E+000	-7.30000E-001	1.47988E-003	7	...........	-327.66
	424	0.85	-7.20716E-001	-7.62945E-008	0.00000E+000	-7.20000E-001	1.42298E-003	7	...........	-327.66
	425	0.852	-7.10666E-001	-1.19236E-008	0.00000E+000	-7.10000E-001	1.48505E-003	7	...........	-327.66
	426	0.854	-7.00722E-001	5.78100E-008	0.00000E+000	-7.00000E-001	1.45747E-003	7	...........	-327.66
	427	0.856	-6.90710E-001	1.37010E-007	0.00000E+000	-6.90000E-001	1.46436E-003	7	...........	-327.66
	428	0.858	-6.80719E-001	2.22781E-007	0.00000E+000	-6.80000E-001	1.41609E-003	7	...........	-327.66
	429	0.86	-6.70688E-001	3.19501E-007	0.00000E+000	-6.70000E-001	1.40229E-003	7	...........	-327.66
	430	0.862	-6.60719E-001	4.25239E-007	0.00000E+000	-6.60000E-001	1.51781E-003	7	...........	-327.66
	431	0.864	-6.50701E-001	5.43238E-007	0.00000E+000	-6.50000E-001	1.46436E-003	7	...........	-327.66
	432	0.866	-6.40750E-001	6.74566E-007	0.00000E+000	-6.40000E-001	1.45229E-003	7	...........	-327.66
	433	0.868	-6.30686E-001	8.20069E-007	0.00000E+000	-6.30000E-001	1.42643E-003	7	...........	-327.66
	434	0.87	-6.20749E-001	9.81970E-007	0.00000E+000	-6.20000E-001	1.41609E-003	7	...........	-327.66
	435	0.872	-6.10772E-001	1.16213E-006	0.00000E+000	-6.10000E-001	1.42988E-003	7	...........	-327.66
	436	0.874	-6.00717E-001	1.36119E-006	0.00000E+000	-6.00000E-001	1.45402E-003	7	...........	-327.66
	437	0.876	-5.90740E-001	1.58112E-006	0.00000E+000	-5.90000E-001	1.45229E-003	7	...........	-327.66
	438	0.878	-5.80718E-001	1.82453E-006	0.00000E+000	-5.80000E-001	1.42815E-003	7	...........	-327.66
	439	0.88	-5.70742E-001	2.08883E-006	0.00000E+000	-5.70000E-001	1.46264E-003	7	...........	-327.66
	440	0.882	-5.60761E-001	2.37759E-006	0.00000E+000	-5.60000E-001	1.51609E-003	7	...........	-327.66
	441	0.884	-5.50661E-001	2.68903E-006	0.00000E+000	-5.50000E-001	1.40747E-003	7	...........	-327.66
	442	0.886	-5.40765E-001	3.01882E-006	0.00000E+000	-5.40000E-001	1.40574E-003	7	...........	-327.66
	443	0.888	-5.30785E-001	3.37114E-006	0.00000E+000	-5.30000E-001	1.43850E-003	7	...........	-327.66
	444	0.89	-5.20775E-001	3.73395E-006	0.00000E+000	-5.20000E-001	1.46953E-003	7	...........	-327.66
	445	0.892	-5.10759E-001	4.09903E-006	0.00000E+000	-5.10000E-001	1.47471E-003	7	...........	-327.66
	446	0.894	-5.00724E-001	4.45299E-006	0.00000E+000	-5.00000E-001	1.46781E-003	7	...........	-327.66
	447	0.896	-4.90744E-001	4.78032E-006	0.00000E+000	-4.90000E-001	1.43160E-003	7	...........	-327.66
	448	0.898	-4.80755E-001	5.06685E-006	0.00000E+000	-4.80000E-001	1.36091E-003	7	...........	-327.66
	449	0.9	-4.70686E-001	5.29239E-006	0.00000E+000	-4.70000E-001	1.46091E-003	7	...........	-327.66
	450	0.902	-4.60783E-001	5.45117E-006	0.00000E+000	-4.60000E-001	1.45402E-003	7	...........	-327.66
	451	0.904	-4.50725E-001	5.54142E-006	0.00000E+000	-4.50000E-001	1.47988E-003	7	...........	-327.66
	452	0.906	-4.40788E-001	5.56482E-006	0.00000E+000	-4.40000E-001	1.46953E-003	7	...........	-327.66
	453	0.908	-4.30761E-001	5.53566E-006	0.00000E+000	-4.30000E-001	1.43678E-003	7	...........	-327.66
	454	0.91	-4.20747E-001	5.46563E-006	0.00000E+000	-4.20000E-001	1.40229E-003	7	...........	-327.66
	455	0.912	-4.10788E-001	5.37188E-006	0.00000E+000	-4.10000E-001	1.47126E-003	7	...........	-327.66
	456	0.914	-4.00771E-001	5.26383E-006	0.00000E+000	-4.00000E-001	1.49022E-003	7	...........	-327.66
	457	0.916	-3.90783E-001	5.15154E-006	0.00000E+000	-3.90000E-001	1.43850E-003	7	...........	-327.66
	458	0.918	-3.80812E-001	5.04107E-006	0.00000E+000	-3.80000E-001	1.45057E-003	7	...........	-327.66
	459	0.92	-3.70731E-001	4.94265E-006	0.00000E+000	-3.70000E-001	1.39884E-003	7	...........	-327.66
	460	0.922	-3.60791E-001	4.85362E-006	0.00000E+000	-3.60000E-001	1.45229E-003	7	...........	-327.66
	461	0.924	-3.50766E-001	4.77411E-006	0.00000E+000	-3.50000E-001	1.46781E-003	7	...........	-327.66
	462	0.926	-3.40781E-001	4.70663E-006	0.00000E+000	-3.40000E-001	1.45057E-003	7	...........	-327.66
	463	0.928	-3.30786E-001	4.64895E-006	0.00000E+000	-3.30000E-001	1.47471E-003	7	...........	-327.66
	464	0.93	-3.20780E-001	4.59931E-006	0.00000E+000	-3.20000E-001	1.44884E-003	7	...........	-327.66
	465	0.932	-3.10802E-001	4.55816E-006	0.00000E+000	-3.10000E-001	1.38850E-003	7	...........	-327.66
	466	0.934	-3.00781E-001	4.52300E-006	0.00000E+000	-3.00000E-001	1.45747E-003	7	...........	-327.66
	467	0.936	-2.90768E-001	4.49543E-006	0.00000E+000	-2.90000E-001	1.50402E-003	7	...........	-327.66
	468	0.938	-2.80794E-001	4.47110E-006	0.00000E+000	-2.80000E-001	1.46953E-003	7	...........	-327.66
	469	0.94	-2.70724E-001	4.45099E-006	0.00000E+000	-2.70000E-001	1.49884E-003	7	...........	-327.66
	470	0.942	-2.60774E-001	4.43411E-006	0.00000E+000	-2.60000E-001	1.46781E-003	7	...........	-327.66
	471	0.944	-2.50796E-001	4.41884E-006	0.00000E+000	-2.50000E-001	1.44712E-003	7	...........	-327.66
	472	0.946	-2.40774E-001	4.40526E-006	0.00000E+000	-2.40000E-001	1.47126E-003	7	...........	-327.66
	473	0.948	-2.30761E-001	4.39342E-006	0.00000E+000	-2.30000E-001	1.46781E-003	7	...........	-327.66
	474	0.95	-2.20736E-001	4.38173E-006	0.00000E+000	-2.20000E-001	1.43160E-003	7	...........	-327.66
	475	0.952	-2.10757E-001	4.37223E-006	0.00000E+000	-2.10000E-001	1.44884E-003	7	...........	-327.66
	476	0.954	-2.00807E-001	4.36334E-006	0.00000E+000	-2.00000E-001	1.47298E-003	7	...........	-327.66
	477	0.956	-1.90759E-001	4.35465E-006	0.00000E+000	-1.90000E-001	1.44195E-003	7	...........	-327.66
	478	0.958	-1.80792E-001	4.34784E-006	0.00000E+000	-1.80000E-001	1.42471E-003	7	...........	-327.66
	479	0.96	-1.70794E-001	4.34186E-006	0.00000E+000	-1.70000E-001	1.41264E-003	7	...........	-327.66
	480	0.962	-1.60799E-001	4.33493E-006	0.00000E+000	-1.60000E-001	1.42126E-003	7	...........	-327.66
	481	0.964	-1.50817E-001	4.33024E-006	0.00000E+000	-1.50000E-001	1.42815E-003	7	...........	-327.66
	482	0.966	-1.40774E-001	4.32518E-006	0.00000E+000	-1.40000E-001	1.48505E-003	7	...........	-327.66
	483	0.968	-1.30812E-001	4.32239E-006	0.00000E+000	-1.30000E-001	1.48333E-003	7	...........	-327.66
	484	0.97	-1.20824E-001	4.31806E-006	0.00000E+000	-1.20000E-001	1.49712E-003	7	...........	-327.66
	485	0.972	-1.10799E-001	4.31387E-006	0.00000E+000	-1.10000E-001	1.43160E-003	7	...........	-327.66
	486	0.974	-1.00830E-001	4.31196E-006	0.00000E+000	-1.00000E-001	1.41264E-003	7	...........	-327.66
	487	0.976	-9.07899E-002	4.30913E-006	0.00000E+000	-9.00000E-002	1.39195E-003	7	...........	-327.66
	488	0.978	-8.08167E-002	4.30484E-006	0.00000E+000	-8.00000E-002	1.46436E-003	7	...........	-327.66
	489	0.98	-7.07822E-002	4.30268E-006	0.00000E+000	-7.00000E-002	1.41436E-003	7	...........	-327.66
	490	0.982	-6.07882E-002	4.29863E-006	0.00000E+000	-6.00000E-002	1.46264E-003	7	...........	-327.66
	491	0.984	-5.07942E-002	4.29523E-006	0.00000E+000	-5.00000E-002	1.47643E-003	7	...........	-327.66
	492	0.986	-4.07787E-002	4.29108E-006	0.00000E+000	-4.00000E-002	1.43333E-003	7	...........	-327.66
	493	0.988	-3.07865E-002	4.28699E-006	0.00000E+000	-3.00000E-002	1.41781E-003	7	...........	-327.66
	494	0.99	-2.07891E-002	4.28240E-006	0.00000E+000	-2.00000E-002	1.44195E-003	7	...........	-327.66
	495	0.992	-1.08089E-002	4.27757E-006	0.00000E+000	-1.00000E-002	1.44195E-003	7	...........	-327.66
	496	0.994	-7.89934E-004	4.27256E-006	0.00000E+000	-1.49012E-008	1.48850E-003	7	...........	-327.66
	497	0.996	9.24196E-003	4.26685E-006	0.00000E+000	9.99999E-003	1.47471E-003	7	...........	-327.66
	498	0.998	1.92385E-002	4.25974E-006	0.00000E+000	2.00000E-002	1.48160E-003	7	...........	-327.66
	499	1	2.92187E-002	4.25273E-006	0.00000E+000	3.00000E-002	1.42988E-003	7	...........	-327.66
	500	1.002	3.91833E-002	4.24654E-006	0.00000E+000	4.00000E-002	1.42298E-003	7	...........	-327.66
	501	1.004	4.92609E-002	4.23829E-006	0.00000E+000	5.00000E-002	1.42298E-003	7	...........	-327.66
	502	1.006	5.92239E-002	4.22991E-006	0.00000E+000	6.00000E-002	1.46436E-003	7	...........	-327.66
	503	1.008	6.92101E-002	4.22069E-006	0.00000E+000	7.00000E-002	1.45402E-003	7	...........	-327.66
	504	1.01	7.92092E-002	4.21276E-006	0.00000E+000	8.00000E-002	1.40229E-003	7	...........	-327.66
	505	1.012	8.92756E-002	4.20329E-006	0.00000E+000	9.00000E-002	1.39884E-003	7	...........	-327.66
	506	1.014	9.92049E-002	4.19182E-006	0.00000E+000	1.00000E-001	1.40057E-003	7	...........	-327.66
	507	1.016	1.09201E-001	4.18244E-006	0.00000E+000	1.10000E-001	1.40229E-003	7	...........	-327.66
	508	1.018	1.19231E-001	4.17128E-006	0.00000E+000	1.20000E-001	1.48850E-003	7	...........	-327.66
	509	1.02	1.29225E-001	4.16092E-006	0.00000E+000	1.30000E-001	1.44884E-003	7	...........	-327.66
	510	1.022	1.39276E-001	4.15001E-006	0.00000E+000	1.40000E-001	1.40057E-003	7	...........	-327.66
	511	1.024	1.49217E-001	4.13963E-006	0.00000E+000	1.50000E-001	1.41091E-003	7	...........	-327.66
	512	1.026	1.59216E-001	4.12871E-006	0.00000E+000	1.60000E-001	1.35402E-003	7	...........	-327.66
	513	1.028	1.69277E-001	4.11847E-006	0.00000E+000	1.70000E-001	1.44367E-003	7	...........	-327.66
	514	1.03	1.79214E-001	4.10702E-006	0.00000E+000	1.80000E-001	1.46609E-003	7	...........	-327.66
	515	1.032	1.89226E-001	4.09696E-006	0.00000E+000	1.90000E-001	1.39712E-003	7	...........	-327.66
	516	1.034	1.99208E-001	4.08662E-006	0.00000E+000	2.00000E-001	1.41609E-003	7	...........	-327.66
	517	1.036	2.09193E-001	4.07587E-006	0.00000E+000	2.10000E-001	1.39884E-003	7	...........	-327.66
	518	1.038	2.19215E-001	4.06587E-006	0.00000E+000	2.20000E-001	1.38678E-003	7	...........	-327.66
	519	1.04	2.29181E-001	4.05580E-006	0.00000E+000	2.30000E-001	1.44367E-003	7	...........	-327.66
	520	1.042	2.39190E-001	4.04710E-006	0.00000E+000	2.40000E-001	1.44540E-003	7	...........	-327.66
	521	1.044	2.49218E-001	4.03915E-006	0.00000E+000	2.50000E-001	1.44022E-003	7	...........	-327.66
	522	1.046	2.59185E-001	4.02742E-006	0.00000E+000	2.60000E-001	1.40229E-003	7	...........	-327.66
	523	1.048	2.69221E-001	4.02140E-006	0.00000E+000	2.70000E-001	1.42988E-003	7	...........	-327.66
	524	1.05	2.79189E-001	4.01325E-006	0.00000E+000	2.80000E-001	1.50574E-003	7	...........	-327.66
	525	1.052	2.89190E-001	4.00631E-006	0.00000E+000	2.90000E-001	1.36953E-003	7	...........	-327.66
	526	1.054	2.99191E-001	3.99935E-006	0.00000E+000	3.00000E-001	1.37815E-003	7	...........	-327.66
	527	1.056	3.09174E-001	3.99431E-006	0.00000E+000	3.10000E-001	1.45229E-003	7	...........	-327.66
	528	1.058	3.19190E-001	3.99040E-006	0.00000E+000	3.20000E-001	1.38160E-003	7	...........	-327.66
	529	1.06	3.29205E-001	3.98717E-006	0.00000E+000	3.30000E-001	1.38678E-003	7	...........	-327.66
	530	1.062	3.39197E-001	3.98417E-006	0.00000E+000	3.40000E-001	1.42298E-003	7	...........	-327.66
	531	1.064	3.49214E-001	3.98234E-006	0.00000E+000	3.50000E-001	1.44022E-003	7	...........	-327.66
	532	1.066	3.59177E-001	3.98134E-006	0.00000E+000	3.60000E-001	1.42815E-003	7	...........	-327.66
	533	1.068	3.69201E-001	3.98322E-006	0.00000E+000	3.70000E-001	1.41609E-003	7	...........	-327.66
	534	1.07	3.79176E-001	3.98403E-006	0.00000E+000	3.80000E-001	1.37643E-003	7	...........	-327.66
	535	1.072	3.89181E-001	3.98731E-006	0.00000E+000	3.90000E-001	1.48505E-003	7	...........	-327.66
	536	1.074	3.99188E-001	3.99188E-006	0.00000E+000	4.00000E-001	1.42126E-003	7	...........	-327.66
	537	1.076	4.09182E-001	3.99892E-006	0.00000E+000	4.10000E-001	1.37988E-003	7	...........	-327.66
	538	1.078	4.19192E-001	4.00507E-006	0.00000E+000	4.20000E-001	1.46781E-003	7	...........	-327.66
	539	1.08	4.29187E-001	4.01437E-006	0.00000E+000	4.30000E-001	1.48160E-003	7	...........	-327.66
	540	1.082	4.39142E-001	4.02361E-006	0.00000E+000	4.40000E-001	1.44022E-003	7	...........	-327.66
	541	1.084	4.49190E-001	4.03652E-006	0.00000E+000	4.50000E-001	1.47471E-003	7	...........	-327.66
	542	1.086	4.59187E-001	4.04992E-006	0.00000E+000	4.60000E-001	1.46609E-003	7	...........	-327.66
	543	1.088	4.69165E-001	4.06501E-006	0.00000E+000	4.70000E-001	1.47126E-003	7	...........	-327.66
	544	1.09	4.79180E-001	4.08146E-006	0.00000E+000	4.80000E-001	1.46781E-003	7	...........	-327.66
	545	1.092	4.89164E-001	4.09983E-006	0.00000E+000	4.90000E-001	1.39712E-003	7	...........	-327.66
	546	1.094	4.99201E-001	4.12002E-006	0.00000E+000	5.00000E-001	1.46436E-003	7	...........	-327.66
	547	1.096	5.09156E-001	4.14249E-006	0.00000E+000	5.10000E-001	1.46953E-003	7	...........	-327.66
	548	1.098	5.19159E-001	4.16527E-006	0.00000E+000	5.20000E-001	1.46781E-003	7	...........	-327.66
	549	1.1	5.29176E-001	4.19110E-006	0.00000E+000	5.30000E-001	1.39367E-003	7	...........	-327.66
	550	1.102	5.39182E-001	4.21755E-006	0.00000E+000	5.40000E-001	1.41091E-003	7	...........	-327.66
	551	1.104	5.49183E-001	4.24588E-006	0.00000E+000	5.50000E-001	1.37126E-003	7	...........	-327.66
	552	1.106	5.59170E-001	4.27718E-006	0.00000E+000	5.60000E-001	1.41609E-003	7	...........	-327.66
	553	1.108	5.69164E-001	4.30960E-006	0.00000E+000	5.70000E-001	1.44884E-003	7	...........	-327.66
	554	1.11	5.79173E-001	4.34305E-006	0.00000E+000	5.80000E-001	1.41781E-003	7	...........	-327.66
	555	1.112	5.89150E-001	4.37898E-006	0.00000E+000	5.90000E-001	1.36436E-003	7	...........	-327.66
	556	1.114	5.99145E-001	4.41509E-006	0.00000E+000	6.00000E-001	1.50574E-003	7	...........	-327.66
CURVE3	TABLE
	Pt	T	Vf	Im	Vu	Sig	Ach	IERange	Over	Temp
	#	s	V vs. Ref.	A	V	V	V	#	bits	deg C
	557	1.116	5.90745E-001	2.93401E-006	0.00000E+000	5.90000E-001	1.45229E-003	7	...........	-327.66
	558	1.118	5.80782E-001	2.11335E-006	0.00000E+000	5.80000E-001	1.45229E-003	7	...........	-327.66
	559	1.12	5.70743E-001	1.50871E-006	0.00000E+000	5.70000E-001	1.48505E-003	7	...........	-327.66
	560	1.122	5.60759E-001	1.01410E-006	0.00000E+000	5.60000E-001	1.45057E-003	7	...........	-327.66
	561	1.124	5.50772E-001	5.90279E-007	0.00000E+000	5.50000E-001	1.39712E-003	7	...........	-327.66
	562	1.126	5.40763E-001	2.16797E-007	0.00000E+000	5.40000E-001	1.47643E-003	7	...........	-327.66
	563	1.128	5.30800E-001	-1.15265E-007	0.00000E+000	5.30000E-001	1.44540E-003	7	...........	-327.66
	564	1.13	5.20775E-001	-4.13840E-007	0.00000E+000	5.20000E-001	1.42126E-003	7	...........	-327.66
	565	1.132	5.10760E-001	-6.81929E-007	0.00000E+000	5.10000E-001	1.40919E-003	7	...........	-327.66
	566	1.134	5.00829E-001	-9.25807E-007	0.00000E+000	5.00000E-001	1.41264E-003	7	...........	-327.66
	567	1.136	4.90757E-001	-1.14744E-006	0.00000E+000	4.90000E-001	1.39540E-003	7	...........	-327.66
	568	1.138	4.80766E-001	-1.34954E-006	0.00000E+000	4.80000E-001	1.49884E-003	7	...........	-327.66
	569	1.14	4.70751E-001	-1.53246E-006	0.00000E+000	4.70000E-001	1.46436E-003	7	...........	-327.66
	570	1.142	4.60776E-001	-1.70100E-006	0.00000E+000	4.60000E-001	1.39022E-003	7	...........	-327.66
	571	1.144	4.50831E-001	-1.85517E-006	0.00000E+000	4.50000E-001	1.41953E-003	7	...........	-327.66
	572	1.146	4.40764E-001	-1.99773E-006	0.00000E+000	4.40000E-001	1.49540E-003	7	...........	-327.66
	573	1.148	4.30763E-001	-2.12657E-006	0.00000E+000	4.30000E-001	1.44540E-003	7	...........	-327.66
	574	1.15	4.20813E-001	-2.24719E-006	0.00000E+000	4.20000E-001	1.38160E-003	7	...........	-327.66
	575	1.152	4.10763E-001	-2.35892E-006	0.00000E+000	4.10000E-001	1.41609E-003	7	...........	-327.66
	576	1.154	4.00793E-001	-2.46240E-006	0.00000E+000	4.00000E-001	1.46436E-003	7	...........	-327.66
	577	1.156	3.90782E-001	-2.55822E-006	0.00000E+000	3.90000E-001	1.46953E-003	7	...........	-327.66
	578	1.158	3.80797E-001	-2.64639E-006	0.00000E+000	3.80000E-001	1.41436E-003	7	...........	-327.66
	579	1.16	3.70833E-001	-2.72960E-006	0.00000E+000	3.70000E-001	1.52126E-003	7	...........	-327.66
	580	1.162	3.60787E-001	-2.80846E-006	0.00000E+000	3.60000E-001	1.41436E-003	7	...........	-327.66
	581	1.164	3.50798E-001	-2.88245E-006	0.00000E+000	3.50000E-001	1.39540E-003	7	...........	-327.66
	582	1.166	3.40817E-001	-2.95086E-006	0.00000E+000	3.40000E-001	1.46264E-003	7	...........	-327.66
	583	1.168	3.30798E-001	-3.01599E-006	0.00000E+000	3.30000E-001	1.40402E-003	7	...........	-327.66
	584	1.17	3.20789E-001	-3.07910E-006	0.00000E+000	3.20000E-001	1.41264E-003	7	...........	-327.66
	585	1.172	3.10796E-001	-3.13801E-006	0.00000E+000	3.10000E-001	1.45919E-003	7	...........	-327.66
	586	1.174	3.00793E-001	-3.19486E-006	0.00000E+000	3.00000E-001	1.43160E-003	7	...........	-327.66
	587	1.176	2.90806E-001	-3.24695E-006	0.00000E+000	2.90000E-001	1.42471E-003	7	...........	-327.66
	588	1.178	2.80789E-001	-3.29837E-006	0.00000E+000	2.80000E-001	1.40229E-003	7	...........	-327.66
	589	1.18	2.70865E-001	-3.34859E-006	0.00000E+000	2.70000E-001	1.42815E-003	7	...........	-327.66
	590	1.182	2.60789E-001	-3.39723E-006	0.00000E+000	2.60000E-001	1.42988E-003	7	...........	-327.66
	591	1.184	2.50841E-001	-3.44060E-006	0.00000E+000	2.50000E-001	1.36953E-003	7	...........	-327.66
	592	1.186	2.40812E-001	-3.48703E-006	0.00000E+000	2.40000E-001	1.42126E-003	7	...........	-327.66
	593	1.188	2.30781E-001	-3.53011E-006	0.00000E+000	2.30000E-001	1.50057E-003	7	...........	-327.66
	594	1.19	2.20843E-001	-3.57163E-006	0.00000E+000	2.20000E-001	1.48333E-003	7	...........	-327.66
	595	1.192	2.10788E-001	-3.61141E-006	0.00000E+000	2.10000E-001	1.40229E-003	7	...........	-327.66
	596	1.194	2.00811E-001	-3.64995E-006	0.00000E+000	2.00000E-001	1.41436E-003	7	...........	-327.66
	597	1.196	1.90846E-001	-3.68851E-006	0.00000E+000	1.90000E-001	1.40057E-003	7	...........	-327.66
	598	1.198	1.80830E-001	-3.72588E-006	0.00000E+000	1.80000E-001	1.44884E-003	7	...........	-327.66
	599	1.2	1.70896E-001	-3.76124E-006	0.00000E+000	1.70000E-001	1.47643E-003	7	...........	-327.66
	600	1.202	1.60831E-001	-3.79734E-006	0.00000E+000	1.60000E-001	1.45574E-003	7	...........	-327.66
	601	1.204	1.50845E-001	-3.82977E-006	0.00000E+000	1.50000E-001	1.41609E-003	7	...........	-327.66
	602	1.206	1.40895E-001	-3.86329E-006	0.00000E+000	1.40000E-001	1.44022E-003	7	...........	-327.66
	603	1.208	1.30837E-001	-3.89473E-006	0.00000E+000	1.30000E-001	1.43850E-003	7	...........	-327.66
	604	1.21	1.20828E-001	-3.92694E-006	0.00000E+000	1.20000E-001	1.41609E-003	7	...........	-327.66
	605	1.212	1.10824E-001	-3.95736E-006	0.00000E+000	1.10000E-001	1.48850E-003	7	...........	-327.66
	606	1.214	1.00827E-001	-3.98664E-006	0.00000E+000	1.00000E-001	1.43505E-003	7	...........	-327.66
	607	1.216	9.08911E-002	-4.01435E-006	0.00000E+000	9.00000E-002	1.48850E-003	7	...........	-327.66
	608	1.218	8.08032E-002	-4.04365E-006	0.00000E+000	8.00000E-002	1.48333E-003	7	...........	-327.66
	609	1.22	7.08290E-002	-4.07070E-006	0.00000E+000	7.00000E-002	1.45574E-003	7	...........	-327.66
	610	1.222	6.08454E-002	-4.09608E-006	0.00000E+000	6.00000E-002	1.39367E-003	7	...........	-327.66
	611	1.224	5.08471E-002	-4.12067E-006	0.00000E+000	5.00000E-002	1.46091E-003	7	...........	-327.66
	612	1.226	4.08342E-002	-4.14611E-006	0.00000E+000	4.00000E-002	1.45057E-003	7	...........	-327.66
	613	1.228	3.08213E-002	-4.17140E-006	0.00000E+000	3.00000E-002	1.40747E-003	7	...........	-327.66
	614	1.23	2.08359E-002	-4.19503E-006	0.00000E+000	2.00000E-002	1.41091E-003	7	...........	-327.66
	615	1.232	1.08471E-002	-4.21777E-006	0.00000E+000	9.99999E-003	1.46781E-003	7	...........	-327.66
	616	1.234	8.03169E-004	-4.24129E-006	0.00000E+000	-1.49012E-008	1.43678E-003	7	...........	-327.66
	617	1.236	-9.13649E-003	-4.26278E-006	0.00000E+000	-1.00000E-002	1.40402E-003	7	...........	-327.66
	618	1.238	-1.91563E-002	-4.28490E-006	0.00000E+000	-2.00000E-002	1.42988E-003	7	...........	-327.66
	619	1.24	-2.91546E-002	-4.30490E-006	0.00000E+000	-3.00000E-002	1.44195E-003	7	...........	-327.66
	620	1.242	-3.91279E-002	-4.32627E-006	0.00000E+000	-4.00000E-002	1.39884E-003	7	...........	-327.66
	621	1.244	-4.91718E-002	-4.34584E-006	0.00000E+000	-5.00000E-002	1.38678E-003	7	...........	-327.66
	622	1.246	-5.91460E-002	-4.36598E-006	0.00000E+000	-6.00000E-002	1.45574E-003	7	...........	-327.66
	623	1.248	-6.91477E-002	-4.38564E-006	0.00000E+000	-7.00000E-002	1.40229E-003	7	...........	-327.66
	624	1.25	-7.91753E-002	-4.40333E-006	0.00000E+000	-8.00000E-002	1.40229E-003	7	...........	-327.66
	625	1.252	-8.91374E-002	-4.42209E-006	0.00000E+000	-9.00000E-002	1.42988E-003	7	...........	-327.66
	626	1.254	-9.91554E-002	-4.44144E-006	0.00000E+000	-1.00000E-001	1.44195E-003	7	...........	-327.66
	627	1.256	-1.09163E-001	-4.45820E-006	0.00000E+000	-1.10000E-001	1.45057E-003	7	...........	-327.66
	628	1.258	-1.19175E-001	-4.47441E-006	0.00000E+000	-1.20000E-001	1.47815E-003	7	...........	-327.66
	629	1.26	-1.29210E-001	-4.49052E-006	0.00000E+000	-1.30000E-001	1.41091E-003	7	...........	-327.66
	630	1.262	-1.39130E-001	-4.50642E-006	0.00000E+000	-1.40000E-001	1.44712E-003	7	...........	-327.66
	631	1.264	-1.49183E-001	-4.52202E-006	0.00000E+000	-1.50000E-001	1.39367E-003	7	...........	-327.66
	632	1.266	-1.59199E-001	-4.53614E-006	0.00000E+000	-1.60000E-001	1.38505E-003	7	...........	-327.66
	633	1.268	-1.69127E-001	-4.54915E-006	0.00000E+000	-1.70000E-001	1.40229E-003	7	...........	-327.66
	634	1.27	-1.79183E-001	-4.56366E-006	0.00000E+000	-1.80000E-001	1.44712E-003	7	...........	-327.66
	635	1.272	-1.89123E-001	-4.57542E-006	0.00000E+000	-1.90000E-001	1.50574E-003	7	...........	-327.66
	636	1.274	-1.99182E-001	-4.58874E-006	0.00000E+000	-2.00000E-001	1.46781E-003	7	...........	-327.66
	637	1.276	-2.09149E-001	-4.59834E-006	0.00000E+000	-2.10000E-001	1.46953E-003	7	...........	-327.66
	638	1.278	-2.19096E-001	-4.60948E-006	0.00000E+000	-2.20000E-001	1.41264E-003	7	...........	-327.66
	639	1.28	-2.29129E-001	-4.61922E-006	0.00000E+000	-2.30000E-001	1.49540E-003	7	...........	-327.66
	640	1.282	-2.39154E-001	-4.62907E-006	0.00000E+000	-2.40000E-001	1.43505E-003	7	...........	-327.66
	641	1.284	-2.49143E-001	-4.63626E-006	0.00000E+000	-2.50000E-001	1.42126E-003	7	...........	-327.66
	642	1.286	-2.59142E-001	-4.64393E-006	0.00000E+000	-2.60000E-001	1.44884E-003	7	...........	-327.66
	643	1.288	-2.69092E-001	-4.64966E-006	0.00000E+000	-2.70000E-001	1.40402E-003	7	...........	-327.66
	644	1.29	-2.79167E-001	-4.65471E-006	0.00000E+000	-2.80000E-001	1.46781E-003	7	...........	-327.66
	645	1.292	-2.89134E-001	-4.65968E-006	0.00000E+000	-2.90000E-001	1.47298E-003	7	...........	-327.66
	646	1.294	-2.99129E-001	-4.66197E-006	0.00000E+000	-3.00000E-001	1.46264E-003	7	...........	-327.66
	647	1.296	-3.09153E-001	-4.66468E-006	0.00000E+000	-3.10000E-001	1.46609E-003	7	...........	-327.66
	648	1.298	-3.19167E-001	-4.66664E-006	0.00000E+000	-3.20000E-001	1.39540E-003	7	...........	-327.66
	649	1.3	-3.29149E-001	-4.66664E-006	0.00000E+000	-3.30000E-001	1.39022E-003	7	...........	-327.66
	650	1.302	-3.39171E-001	-4.66783E-006	0.00000E+000	-3.40000E-001	1.42471E-003	7	...........	-327.66
	651	1.304	-3.49124E-001	-4.66597E-006	0.00000E+000	-3.50000E-001	1.38850E-003	7	...........	-327.66
	652	1.306	-3.59177E-001	-4.66499E-006	0.00000E+000	-3.60000E-001	1.39884E-003	7	...........	-327.66
	653	1.308	-3.69083E-001	-4.66371E-006	0.00000E+000	-3.70000E-001	1.38850E-003	7	...........	-327.66
	654	1.31	-3.79136E-001	-4.66137E-006	0.00000E+000	-3.80000E-001	1.42988E-003	7	...........	-327.66
	655	1.312	-3.89123E-001	-4.65744E-006	0.00000E+000	-3.90000E-001	1.44540E-003	7	...........	-327.66
	656	1.314	-3.99119E-001	-4.65330E-006	0.00000E+000	-4.00000E-001	1.45574E-003	7	...........	-327.66
	657	1.316	-4.09136E-001	-4.64916E-006	0.00000E+000	-4.10000E-001	1.48850E-003	7	...........	-327.66
	658	1.318	-4.19109E-001	-4.64507E-006	0.00000E+000	-4.20000E-001	1.45229E-003	7	...........	-327.66
	659	1.32	-4.29129E-001	-4.64042E-006	0.00000E+000	-4.30000E-001	1.40402E-003	7	...........	-327.66
	660	1.322	-4.39155E-001	-4.63417E-006	0.00000E+000	-4.40000E-001	1.42988E-003	7	...........	-327.66
	661	1.324	-4.49080E-001	-4.62838E-006	0.00000E+000	-4.50000E-001	1.40402E-003	7	...........	-327.66
	662	1.326	-4.59146E-001	-4.62284E-006	0.00000E+000	-4.60000E-001	1.36609E-003	7	...........	-327.66
	663	1.328	-4.69051E-001	-4.61509E-006	0.00000E+000	-4.70000E-001	1.41091E-003	7	...........	-327.66
	664	1.33	-4.79114E-001	-4.60834E-006	0.00000E+000	-4.80000E-001	1.43850E-003	7	...........	-327.66
	665	1.332	-4.89135E-001	-4.59838E-006	0.00000E+000	-4.90000E-001	1.44022E-003	7	...........	-327.66
	666	1.334	-4.99075E-001	-4.59046E-006	0.00000E+000	-5.00000E-001	1.39540E-003	7	...........	-327.66
	667	1.336	-5.09096E-001	-4.57993E-006	0.00000E+000	-5.10000E-001	1.36781E-003	7	...........	-327.66
	668	1.338	-5.19164E-001	-4.56823E-006	0.00000E+000	-5.20000E-001	1.40402E-003	7	...........	-327.66
	669	1.34	-5.29142E-001	-4.55234E-006	0.00000E+000	-5.30000E-001	1.44195E-003	7	...........	-327.66
	670	1.342	-5.39160E-001	-4.53449E-006	0.00000E+000	-5.40000E-001	1.42815E-003	7	...........	-327.66
	671	1.344	-5.49066E-001	-4.51385E-006	0.00000E+000	-5.50000E-001	1.48333E-003	7	...........	-327.66
	672	1.346	-5.59147E-001	-4.48793E-006	0.00000E+000	-5.60000E-001	1.51609E-003	7	...........	-327.66
	673	1.348	-5.69113E-001	-4.45736E-006	0.00000E+000	-5.70000E-001	1.47298E-003	7	...........	-327.66
	674	1.35	-5.79070E-001	-4.42027E-006	0.00000E+000	-5.80000E-001	1.45747E-003	7	...........	-327.66
	675	1.352	-5.89112E-001	-4.37528E-006	0.00000E+000	-5.90000E-001	1.42815E-003	7	...........	-327.66
	676	1.354	-5.99117E-001	-4.32301E-006	0.00000E+000	-6.00000E-001	1.44884E-003	7	...........	-327.66
	677	1.356	-6.09139E-001	-4.26211E-006	0.00000E+000	-6.10000E-001	1.50229E-003	7	...........	-327.66
	678	1.358	-6.19087E-001	-4.19106E-006	0.00000E+000	-6.20000E-001	1.40919E-003	7	...........	-327.66
	679	1.36	-6.29049E-001	-4.10926E-006	0.00000E+000	-6.30000E-001	1.40402E-003	7	...........	-327.66
	680	1.362	-6.39130E-001	-4.01754E-006	0.00000E+000	-6.40000E-001	1.42643E-003	7	...........	-327.66
	681	1.364	-6.49092E-001	-3.91394E-006	0.00000E+000	-6.50000E-001	1.40747E-003	7	...........	-327.66
	682	1.366	-6.59097E-001	-3.79999E-006	0.00000E+000	-6.60000E-001	1.43850E-003	7	...........	-327.66
	683	1.368	-6.69039E-001	-3.67247E-006	0.00000E+000	-6.70000E-001	1.40747E-003	7	...........	-327.66
	684	1.37	-6.79047E-001	-3.53692E-006	0.00000E+000	-6.80000E-001	1.45057E-003	7	...........	-327.66
	685	1.372	-6.89115E-001	-3.39113E-006	0.00000E+000	-6.90000E-001	1.42815E-003	7	...........	-327.66
	686	1.374	-6.99094E-001	-3.24035E-006	0.00000E+000	-7.00000E-001	1.43160E-003	7	...........	-327.66
	687	1.376	-7.09036E-001	-3.08201E-006	0.00000E+000	-7.10000E-001	1.40402E-003	7	...........	-327.66
	688	1.378	-7.19143E-001	-2.92358E-006	0.00000E+000	-7.20000E-001	1.45919E-003	7	...........	-327.66
	689	1.38	-7.29070E-001	-2.76199E-006	0.00000E+000	-7.30000E-001	1.40402E-003	7	...........	-327.66
	690	1.382	-7.39137E-001	-2.60293E-006	0.00000E+000	-7.40000E-001	1.38678E-003	7	...........	-327.66
	691	1.384	-7.49093E-001	-2.44344E-006	0.00000E+000	-7.50000E-001	1.40402E-003	7	...........	-327.66
	692	1.386	-7.59122E-001	-2.28792E-006	0.00000E+000	-7.60000E-001	1.42643E-003	7	...........	-327.66
	693	1.388	-7.69138E-001	-2.14092E-006	0.00000E+000	-7.70000E-001	1.38678E-003	7	...........	-327.66
	694	1.39	-7.79090E-001	-2.00135E-006	0.00000E+000	-7.80000E-001	1.41609E-003	7	...........	-327.66
	695	1.392	-7.89113E-001	-1.86680E-006	0.00000E+000	-7.90000E-001	1.44367E-003	7	...........	-327.66
	696	1.394	-7.99157E-001	-1.74328E-006	0.00000E+000	-8.00000E-001	1.39195E-003	7	...........	-327.66
	697	1.396	-8.09065E-001	-1.63030E-006	0.00000E+000	-8.10000E-001	1.44195E-003	7	...........	-327.66
	698	1.398	-8.19129E-001	-1.52387E-006	0.00000E+000	-8.20000E-001	1.48850E-003	7	...........	-327.66
	699	1.4	-8.29004E-001	-1.42853E-006	0.00000E+000	-8.30000E-001	1.45229E-003	7	...........	-327.66
	700	1.402	-8.39131E-001	-1.34378E-006	0.00000E+000	-8.40000E-001	1.45747E-003	7	...........	-327.66
	701	1.404	-8.49155E-001	-1.26630E-006	0.00000E+000	-8.50000E-001	1.45229E-003	7	...........	-327.66
	702	1.406	-8.59082E-001	-1.19595E-006	0.00000E+000	-8.60000E-001	1.39195E-003	7	...........	-327.66
	703	1.408	-8.69118E-001	-1.13446E-006	0.00000E+000	-8.70000E-001	1.40402E-003	7	...........	-327.66
	704	1.41	-8.79130E-001	-1.08090E-006	0.00000E+000	-8.80000E-001	1.38333E-003	7	...........	-327.66
	705	1.412	-8.89085E-001	-1.03324E-006	0.00000E+000	-8.90000E-001	1.42988E-003	7	...........	-327.66
	706	1.414	-8.99138E-001	-9.89005E-007	0.00000E+000	-9.00000E-001	1.41953E-003	7	...........	-327.66
	707	1.416	-8.90669E-001	-8.71627E-007	0.00000E+000	-8.90000E-001	1.46781E-003	7	...........	-327.66
	708	1.418	-8.80724E-001	-7.88305E-007	0.00000E+000	-8.80000E-001	1.38333E-003	7	...........	-327.66
	709	1.42	-8.70698E-001	-7.24021E-007	0.00000E+000	-8.70000E-001	1.53678E-003	7	...........	-327.66
	710	1.422	-8.60645E-001	-6.70755E-007	0.00000E+000	-8.60000E-001	1.44540E-003	7	...........	-327.66
	711	1.424	-8.50682E-001	-6.24645E-007	0.00000E+000	-8.50000E-001	1.40574E-003	7	...........	-327.66
	712	1.426	-8.40662E-001	-5.82984E-007	0.00000E+000	-8.40000E-001	1.46781E-003	7	...........	-327.66
	713	1.428	-8.30612E-001	-5.44272E-007	0.00000E+000	-8.30000E-001	1.47126E-003	7	...........	-327.66
	714	1.43	-8.20726E-001	-5.04784E-007	0.00000E+000	-8.20000E-001	1.49712E-003	7	...........	-327.66
	715	1.432	-8.10624E-001	-4.68124E-007	0.00000E+000	-8.10000E-001	1.44540E-003	7	...........	-327.66
	716	1.434	-8.00686E-001	-4.32188E-007	0.00000E+000	-8.00000E-001	1.47126E-003	7	...........	-327.66
	717	1.436	-7.90681E-001	-3.94407E-007	0.00000E+000	-7.90000E-001	1.43850E-003	7	...........	-327.66
	718	1.438	-7.80569E-001	-3.54746E-007	0.00000E+000	-7.80000E-001	1.40747E-003	7	...........	-327.66
	719	1.44	-7.70656E-001	-3.16724E-007	0.00000E+000	-7.70000E-001	1.44022E-003	7	...........	-327.66
	720	1.442	-7.60660E-001	-2.72252E-007	0.00000E+000	-7.60000E-001	1.39022E-003	7	...........	-327.66
	721	1.444	-7.50661E-001	-2.27056E-007	0.00000E+000	-7.50000E-001	1.45057E-003	7	...........	-327.66
	722	1.446	-7.40725E-001	-1.77446E-007	0.00000E+000	-7.40000E-001	1.41091E-003	7	...........	-327.66
	723	1.448	-7.30698E-001	-1.23197E-007	0.00000E+000	-7.30000E-001	1.46609E-003	7	...........	-327.66
	724	1.45	-7.20730E-001	-6.50861E-008	0.00000E+000	-7.20000E-001	1.43678E-003	7	...........	-327.66
	725	1.452	-7.10678E-001	1.02640E-009	0.00000E+000	-7.10000E-001	1.45402E-003	7	...........	-327.66
	726	1.454	-7.00694E-001	7.01048E-008	0.00000E+000	-7.00000E-001	1.50747E-003	7	...........	-327.66
	727	1.456	-6.90729E-001	1.50185E-007	0.00000E+000	-6.90000E-001	1.41091E-003	7	...........	-327.66
	728	1.458	-6.80732E-001	2.37248E-007	0.00000E+000	-6.80000E-001	1.40057E-003	7	...........	-327.66
	729	1.46	-6.70660E-001	3.33606E-007	0.00000E+000	-6.70000E-001	1.40747E-003	7	...........	-327.66
	730	1.462	-6.60726E-001	4.41224E-007	0.00000E+000	-6.60000E-001	1.41953E-003	7	...........	-327.66
	731	1.464	-6.50681E-001	5.60378E-007	0.00000E+000	-6.50000E-001	1.43850E-003	7	...........	-327.66
	732	1.466	-6.40723E-001	6.93690E-007	0.00000E+000	-6.40000E-001	1.39195E-003	7	...........	-327.66
	733	1.468	-6.30688E-001	8.41831E-007	0.00000E+000	-6.30000E-001	1.43160E-003	7	...........	-327.66
	734	1.47	-6.20721E-001	1.00535E-006	0.00000E+000	-6.20000E-001	1.51781E-003	7	...........	-327.66
	735	1.472	-6.10773E-001	1.18710E-006	0.00000E+000	-6.10000E-001	1.40057E-003	7	...........	-327.66
	736	1.474	-6.00733E-001	1.38944E-006	0.00000E+000	-6.00000E-001	1.42126E-003	7	...........	-327.66
	737	1.476	-5.90730E-001	1.61273E-006	0.00000E+000	-5.90000E-001	1.47126E-003	7	...........	-327.66
	738	1.478	-5.80724E-001	1.85807E-006	0.00000E+000	-5.80000E-001	1.46953E-003	7	...........	-327.66
	739	1.48	-5.70739E-001	2.12640E-006	0.00000E+000	-5.70000E-001	1.42126E-003	7	...........	-327.66
	740	1.482	-5.60768E-001	2.41820E-006	0.00000E+000	-5.60000E-001	1.41091E-003	7	...........	-327.66
	741	1.484	-5.50698E-001	2.73283E-006	0.00000E+000	-5.50000E-001	1.41091E-003	7	...........	-327.66
	742	1.486	-5.40753E-001	3.06919E-006	0.00000E+000	-5.40000E-001	1.43850E-003	7	...........	-327.66
	743	1.488	-5.30770E-001	3.42279E-006	0.00000E+000	-5.30000E-001	1.39884E-003	7	...........	-327.66
	744	1.49	-5.20775E-001	3.78642E-006	0.00000E+000	-5.20000E-001	1.36953E-003	7	...........	-327.66
	745	1.492	-5.10750E-001	4.15563E-006	0.00000E+000	-5.10000E-001	1.43160E-003	7	...........	-327.66
	746	1.494	-5.00696E-001	4.50804E-006	0.00000E+000	-5.00000E-001	1.48160E-003	7	...........	-327.66
	747	1.496	-4.90782E-001	4.83418E-006	0.00000E+000	-4.90000E-001	1.41264E-003	7	...........	-327.66
	748	1.498	-4.80766E-001	5.11274E-006	0.00000E+000	-4.80000E-001	1.36953E-003	7	...........	-327.66
	749	1.5	-4.70711E-001	5.33101E-006	0.00000E+000	-4.70000E-001	1.47471E-003	7	...........	-327.66
	750	1.502	-4.60767E-001	5.47763E-006	0.00000E+000	-4.60000E-001	1.47298E-003	7	...........	-327.66
	751	1.504	-4.50725E-001	5.55330E-006	0.00000E+000	-4.50000E-001	1.47988E-003	7	...........	-327.66
	752	1.506	-4.40776E-001	5.56535E-006	0.00000E+000	-4.40000E-001	1.47298E-003	7	...........	-327.66
	753	1.508	-4.30741E-001	5.52249E-006	0.00000E+000	-4.30000E-001	1.49712E-003	7	...........	-327.66
	754	1.51	-4.20749E-001	5.44173E-006	0.00000E+000	-4.20000E-001	1.47643E-003	7	...........	-327.66
	755	1.512	-4.10775E-001	5.33805E-006	0.00000E+000	-4.10000E-001	1.45919E-003	7	...........	-327.66
	756	1.514	-4.00768E-001	5.22300E-006	0.00000E+000	-4.00000E-001	1.43160E-003	7	...........	-327.66
	757	1.516	-3.90753E-001	5.10705E-006	0.00000E+000	-3.90000E-001	1.50574E-003	7	...........	-327.66
	758	1.518	-3.80790E-001	4.99650E-006	0.00000E+000	-3.80000E-001	1.49712E-003	7	...........	-327.66
	759	1.52	-3.70748E-001	4.89593E-006	0.00000E+000	-3.70000E-001	1.40057E-003	7	...........	-327.66
	760	1.522	-3.60792E-001	4.80503E-006	0.00000E+000	-3.60000E-001	1.39022E-003	7	...........	-327.66
	761	1.524	-3.50762E-001	4.72764E-006	0.00000E+000	-3.50000E-001	1.39367E-003	7	...........	-327.66
	762	1.526	-3.40776E-001	4.65916E-006	0.00000E+000	-3.40000E-001	1.40574E-003	7	...........	-327.66
	763	1.528	-3.30802E-001	4.60343E-006	0.00000E+000	-3.30000E-001	1.40574E-003	7	...........	-327.66
	764	1.53	-3.20768E-001	4.55516E-006	0.00000E+000	-3.20000E-001	1.49884E-003	7	...........	-327.66
	765	1.532	-3.10786E-001	4.51654E-006	0.00000E+000	-3.10000E-001	1.50919E-003	7	...........	-327.66
	766	1.534	-3.00768E-001	4.48347E-006	0.00000E+000	-3.00000E-001	1.51264E-003	7	...........	-327.66
	767	1.536	-2.90749E-001	4.45531E-006	0.00000E+000	-2.90000E-001	1.47298E-003	7	...........	-327.66
	768	1.538	-2.80781E-001	4.43180E-006	0.00000E+000	-2.80000E-001	1.44195E-003	7	...........	-327.66
	769	1.54	-2.70734E-001	4.41339E-006	0.00000E+000	-2.70000E-001	1.42815E-003	7	...........	-327.66
	770	1.542	-2.60778E-001	4.39664E-006	0.00000E+000	-2.60000E-001	1.49540E-003	7	...........	-327.66
	771	1.544	-2.50795E-001	4.38261E-006	0.00000E+000	-2.50000E-001	1.44540E-003	7	...........	-327.66
	772	1.546	-2.40769E-001	4.37091E-006	0.00000E+000	-2.40000E-001	1.45057E-003	7	...........	-327.66
	773	1.548	-2.30786E-001	4.35888E-006	0.00000E+000	-2.30000E-001	1.41953E-003	7	...........	-327.66
	774	1.55	-2.20740E-001	4.34921E-006	0.00000E+000	-2.20000E-001	1.46436E-003	7	...........	-327.66
	775	1.552	-2.10774E-001	4.34084E-006	0.00000E+000	-2.10000E-001	1.44884E-003	7	...........	-327.66
	776	1.554	-2.00792E-001	4.33207E-006	0.00000E+000	-2.00000E-001	1.37298E-003	7	...........	-327.66
	777	1.556	-1.90722E-001	4.32637E-006	0.00000E+000	-1.90000E-001	1.41781E-003	7	...........	-327.66
	778	1.558	-1.80811E-001	4.31886E-006	0.00000E+000	-1.80000E-001	1.45402E-003	7	...........	-327.66
	779	1.56	-1.70782E-001	4.31441E-006	0.00000E+000	-1.70000E-001	1.39540E-003	7	...........	-327.66
	780	1.562	-1.60779E-001	4.30917E-006	0.00000E+000	-1.60000E-001	1.46264E-003	7	...........	-327.66
	781	1.564	-1.50815E-001	4.30430E-006	0.00000E+000	-1.50000E-001	1.47471E-003	7	...........	-327.66
	782	1.566	-1.40784E-001	4.30135E-006	0.00000E+000	-1.40000E-001	1.49195E-003	7	...........	-327.66
	783	1.568	-1.30809E-001	4.29778E-006	0.00000E+000	-1.30000E-001	1.46091E-003	7	...........	-327.66
	784	1.57	-1.20816E-001	4.29471E-006	0.00000E+000	-1.20000E-001	1.48160E-003	7	...........	-327.66
	785	1.572	-1.10796E-001	4.29166E-006	0.00000E+000	-1.10000E-001	1.47126E-003	7	...........	-327.66
	786	1.574	-1.00793E-001	4.28868E-006	0.00000E+000	-1.00000E-001	1.46609E-003	7	...........	-327.66
	787	1.576	-9.07899E-002	4.28699E-006	0.00000E+000	-9.00000E-002	1.50402E-003	7	...........	-327.66
	788	1.578	-8.07934E-002	4.28395E-006	0.00000E+000	-8.00000E-002	1.39367E-003	7	...........	-327.66
	789	1.58	-7.07796E-002	4.28118E-006	0.00000E+000	-7.00000E-002	1.43505E-003	7	...........	-327.66
	790	1.582	-6.07951E-002	4.27806E-006	0.00000E+000	-6.00000E-002	1.46609E-003	7	...........	-327.66
	791	1.584	-5.08158E-002	4.27511E-006	0.00000E+000	-5.00000E-002	1.42815E-003	7	...........	-327.66
	792	1.586	-4.07779E-002	4.27138E-006	0.00000E+000	-4.00000E-002	1.48160E-003	7	...........	-327.66
	793	1.588	-3.07865E-002	4.26762E-006	0.00000E+000	-3.00000E-002	1.52126E-003	7	...........	-327.66
	794	1.59	-2.08098E-002	4.26314E-006	0.00000E+000	-2.00000E-002	1.47298E-003	7	...........	-327.66
	795	1.592	-1.07779E-002	4.25952E-006	0.00000E+000	-1.00000E-002	1.51091E-003	7	...........	-327.66
	796	1.594	-8.00279E-004	4.25383E-006	0.00000E+000	-1.49012E-008	1.46781E-003	7	...........	-327.66
	797	1.596	9.23679E-003	4.24867E-006	0.00000E+000	9.99999E-003	1.42471E-003	7	...........	-327.66
	798	1.598	1.92264E-002	4.24259E-006	0.00000E+000	2.00000E-002	1.38333E-003	7	...........	-327.66
	799	1.6	2.92075E-002	4.23645E-006	0.00000E+000	3.00000E-002	1.41953E-003	7	...........	-327.66
	800	1.602	3.91299E-002	4.22943E-006	0.00000E+000	4.00000E-002	1.48333E-003	7	...........	-327.66
	801	1.604	4.92325E-002	4.22234E-006	0.00000E+000	5.00000E-002	1.44367E-003	7	...........	-327.66
	802	1.606	5.92282E-002	4.21510E-006	0.00000E+000	6.00000E-002	1.47988E-003	7	...........	-327.66
	803	1.608	6.92161E-002	4.20655E-006	0.00000E+000	7.00000E-002	1.45747E-003	7	...........	-327.66
	804	1.61	7.91920E-002	4.19815E-006	0.00000E+000	8.00000E-002	1.40919E-003	7	...........	-327.66
	805	1.612	8.92695E-002	4.18891E-006	0.00000E+000	9.00000E-002	1.40402E-003	7	...........	-327.66
	806	1.614	9.92204E-002	4.17927E-006	0.00000E+000	1.00000E-001	1.46953E-003	7	...........	-327.66
	807	1.616	1.09213E-001	4.17016E-006	0.00000E+000	1.10000E-001	1.41609E-003	7	...........	-327.66
	808	1.618	1.19245E-001	4.15973E-006	0.00000E+000	1.20000E-001	1.41609E-003	7	...........	-327.66
	809	1.62	1.29241E-001	4.14947E-006	0.00000E+000	1.30000E-001	1.37988E-003	7	...........	-327.66
	810	1.622	1.39271E-001	4.13887E-006	0.00000E+000	1.40000E-001	1.48160E-003	7	...........	-327.66
	811	1.624	1.49248E-001	4.12895E-006	0.00000E+000	1.50000E-001	1.43160E-003	7	...........	-327.66
	812	1.626	1.59231E-001	4.11805E-006	0.00000E+000	1.60000E-001	1.42988E-003	7	...........	-327.66
	813	1.628	1.69258E-001	4.10836E-006	0.00000E+000	1.70000E-001	1.36436E-003	7	...........	-327.66
	814	1.63	1.79215E-001	4.09834E-006	0.00000E+000	1.80000E-001	1.39884E-003	7	...........	-327.66
	815	1.632	1.89218E-001	4.08745E-006	0.00000E+000	1.90000E-001	1.36264E-003	7	...........	-327.66
	816	1.634	1.99192E-001	4.07748E-006	0.00000E+000	2.00000E-001	1.41781E-003	7	...........	-327.66
	817	1.636	2.09195E-001	4.06825E-006	0.00000E+000	2.10000E-001	1.50919E-003	7	...........	-327.66
	818	1.638	2.19210E-001	4.05882E-006	0.00000E+000	2.20000E-001	1.39022E-003	7	...........	-327.66
	819	1.64	2.29190E-001	4.04915E-006	0.00000E+000	2.30000E-001	1.41781E-003	7	...........	-327.66
	820	1.642	2.39188E-001	4.04097E-006	0.00000E+000	2.40000E-001	1.41091E-003	7	...........	-327.66
	821	1.644	2.49200E-001	4.03258E-006	0.00000E+000	2.50000E-001	1.40747E-003	7	...........	-327.66
	822	1.646	2.59183E-001	4.02257E-006	0.00000E+000	2.60000E-001	1.47298E-003	7	...........	-327.66
	823	1.648	2.69218E-001	4.01575E-006	0.00000E+000	2.70000E-001	1.40229E-003	7	...........	-327.66
	824	1.65	2.79181E-001	4.00823E-006	0.00000E+000	2.80000E-001	1.47988E-003	7	...........	-327.66
	825	1.652	2.89195E-001	4.00252E-006	0.00000E+000	2.90000E-001	1.42643E-003	7	...........	-327.66
	826	1.654	2.99190E-001	3.99578E-006	0.00000E+000	3.00000E-001	1.43505E-003	7	...........	-327.66
	827	1.656	3.09171E-001	3.99185E-006	0.00000E+000	3.10000E-001	1.43505E-003	7	...........	-327.66
	828	1.658	3.19201E-001	3.98771E-006	0.00000E+000	3.20000E-001	1.45229E-003	7	...........	-327.66
	829	1.66	3.29234E-001	3.98476E-006	0.00000E+000	3.30000E-001	1.51264E-003	7	...........	-327.66
	830	1.662	3.39193E-001	3.98240E-006	0.00000E+000	3.40000E-001	1.44540E-003	7	...........	-327.66
	831	1.664	3.49197E-001	3.98072E-006	0.00000E+000	3.50000E-001	1.41091E-003	7	...........	-327.66
	832	1.666	3.59182E-001	3.98126E-006	0.00000E+000	3.60000E-001	1.49022E-003	7	...........	-327.66
	833	1.668	3.69229E-001	3.98328E-006	0.00000E+000	3.70000E-001	1.42988E-003	7	...........	-327.66
	834	1.67	3.79194E-001	3.98474E-006	0.00000E+000	3.80000E-001	1.42643E-003	7	...........	-327.66
	835	1.672	3.89170E-001	3.98812E-006	0.00000E+000	3.90000E-001	1.48160E-003	7	...........	-327.66
	836	1.674	3.99208E-001	3.99392E-006	0.00000E+000	4.00000E-001	1.48333E-003	7	...........	-327.66
	837	1.676	4.09186E-001	4.00055E-006	0.00000E+000	4.10000E-001	1.46609E-003	7	...........	-327.66
	838	1.678	4.19195E-001	4.00818E-006	0.00000E+000	4.20000E-001	1.42126E-003	7	...........	-327.66
	839	1.68	4.29191E-001	4.01694E-006	0.00000E+000	4.30000E-001	1.46264E-003	7	...........	-327.66
	840	1.682	4.39149E-001	4.02744E-006	0.00000E+000	4.40000E-001	1.45747E-003	7	...........	-327.66
	841	1.684	4.49217E-001	4.04070E-006	0.00000E+000	4.50000E-001	1.40919E-003	7	...........	-327.66
	842	1.686	4.59176E-001	4.05346E-006	0.00000E+000	4.60000E-001	1.43160E-003	7	...........	-327.66
	843	1.688	4.69170E-001	4.06944E-006	0.00000E+000	4.70000E-001	1.47126E-003	7	...........	-327.66
	844	1.69	4.79170E-001	4.08705E-006	0.00000E+000	4.80000E-001	1.39540E-003	7	...........	-327.66
	845	1.692	4.89156E-001	4.10536E-006	0.00000E+000	4.90000E-001	1.44884E-003	7	...........	-327.66
	846	1.694	4.99189E-001	4.12652E-006	0.00000E+000	5.00000E-001	1.46953E-003	7	...........	-327.66
	847	1.696	5.09158E-001	4.14940E-006	0.00000E+000	5.10000E-001	1.50402E-003	7	...........	-327.66
	848	1.698	5.19156E-001	4.17353E-006	0.00000E+000	5.20000E-001	1.48678E-003	7	...........	-327.66
	849	1.7	5.29201E-001	4.19893E-006	0.00000E+000	5.30000E-001	1.45574E-003	7	...........	-327.66
	850	1.702	5.39180E-001	4.22607E-006	0.00000E+000	5.40000E-001	1.46953E-003	7	...........	-327.66
	851	1.704	5.49184E-001	4.25549E-006	0.00000E+000	5.50000E-001	1.42988E-003	7	...........	-327.66
	852	1.706	5.59190E-001	4.28711E-006	0.00000E+000	5.60000E-001	1.39884E-003	7	...........	-327.66
	853	1.708	5.69182E-001	4.31955E-006	0.00000E+000	5.70000E-001	1.41609E-003	7	...........	-327.66
	854	1.71	5.79173E-001	4.35438E-006	0.00000E+000	5.80000E-001	1.40574E-003	7	...........	-327.66
	855	1.712	5.89170E-001	4.39093E-006	0.00000E+000	5.90000E-001	1.46264E-003	7	...........	-327.66
	856	1.714	5.99191E-001	4.42747E-006	0.00000E+000	6.00000E-001	1.51091E-003	7	...........	-327.66
CURVE4	TABLE
	Pt	T	Vf	Im	Vu	Sig	Ach	IERange	Over	Temp
	#	s	V vs. Ref.	A	V	V	V	#	bits	deg C
	857	1.716	5.90759E-001	2.93055E-006	0.00000E+000	5.90000E-001	1.44884E-003	7	...........	-327.66
	858	1.718	5.80762E-001	2.09412E-006	0.00000E+000	5.80000E-001	1.42471E-003	7	...........	-327.66
	859	1.72	5.70759E-001	1.48021E-006	0.00000E+000	5.70000E-001	1.47643E-003	7	...........	-327.66
	860	1.722	5.60760E-001	9.77246E-007	0.00000E+000	5.60000E-001	1.48850E-003	7	...........	-327.66
	861	1.724	5.50771E-001	5.46721E-007	0.00000E+000	5.50000E-001	1.47471E-003	7	...........	-327.66
	862	1.726	5.40789E-001	1.68170E-007	0.00000E+000	5.40000E-001	1.47988E-003	7	...........	-327.66
	863	1.728	5.30776E-001	-1.67324E-007	0.00000E+000	5.30000E-001	1.47126E-003	7	...........	-327.66
	864	1.73	5.20779E-001	-4.70279E-007	0.00000E+000	5.20000E-001	1.43160E-003	7	...........	-327.66
	865	1.732	5.10764E-001	-7.40937E-007	0.00000E+000	5.10000E-001	1.42298E-003	7	...........	-327.66
	866	1.734	5.00801E-001	-9.85608E-007	0.00000E+000	5.00000E-001	1.39884E-003	7	...........	-327.66
	867	1.736	4.90754E-001	-1.20838E-006	0.00000E+000	4.90000E-001	1.45402E-003	7	...........	-327.66
	868	1.738	4.80755E-001	-1.41068E-006	0.00000E+000	4.80000E-001	1.39712E-003	7	...........	-327.66
	869	1.74	4.70782E-001	-1.59355E-006	0.00000E+000	4.70000E-001	1.44884E-003	7	...........	-327.66
	870	1.742	4.60770E-001	-1.76225E-006	0.00000E+000	4.60000E-001	1.52471E-003	7	...........	-327.66
	871	1.744	4.50850E-001	-1.91505E-006	0.00000E+000	4.50000E-001	1.46609E-003	7	...........	-327.66
	872	1.746	4.40769E-001	-2.05743E-006	0.00000E+000	4.40000E-001	1.47298E-003	7	...........	-327.66
	873	1.748	4.30779E-001	-2.18646E-006	0.00000E+000	4.30000E-001	1.40229E-003	7	...........	-327.66
	874	1.75	4.20809E-001	-2.30560E-006	0.00000E+000	4.20000E-001	1.38160E-003	7	...........	-327.66
	875	1.752	4.10782E-001	-2.41448E-006	0.00000E+000	4.10000E-001	1.35747E-003	7	...........	-327.66
	876	1.754	4.00786E-001	-2.51716E-006	0.00000E+000	4.00000E-001	1.41091E-003	7	...........	-327.66
	877	1.756	3.90797E-001	-2.61211E-006	0.00000E+000	3.90000E-001	1.40574E-003	7	...........	-327.66
	878	1.758	3.80814E-001	-2.69851E-006	0.00000E+000	3.80000E-001	1.47471E-003	7	...........	-327.66
	879	1.76	3.70836E-001	-2.78116E-006	0.00000E+000	3.70000E-001	1.40747E-003	7	...........	-327.66
	880	1.762	3.60765E-001	-2.85859E-006	0.00000E+000	3.60000E-001	1.46091E-003	7	...........	-327.66
	881	1.764	3.50820E-001	-2.93055E-006	0.00000E+000	3.50000E-001	1.47988E-003	7	...........	-327.66
	882	1.766	3.40829E-001	-2.99812E-006	0.00000E+000	3.40000E-001	1.41091E-003	7	...........	-327.66
	883	1.768	3.30809E-001	-3.06115E-006	0.00000E+000	3.30000E-001	1.48160E-003	7	...........	-327.66
	884	1.77	3.20801E-001	-3.12314E-006	0.00000E+000	3.20000E-001	1.45057E-003	7	...........	-327.66
	885	1.772	3.10794E-001	-3.18008E-006	0.00000E+000	3.10000E-001	1.39022E-003	7	...........	-327.66
	886	1.774	3.00792E-001	-3.23597E-006	0.00000E+000	3.00000E-001	1.45919E-003	7	...........	-327.66
	887	1.776	2.90808E-001	-3.28682E-006	0.00000E+000	2.90000E-001	1.44712E-003	7	...........	-327.66
	888	1.778	2.80791E-001	-3.33745E-006	0.00000E+000	2.80000E-001	1.44884E-003	7	...........	-327.66
	889	1.78	2.70868E-001	-3.38571E-006	0.00000E+000	2.70000E-001	1.42298E-003	7	...........	-327.66
	890	1.782	2.60809E-001	-3.43270E-006	0.00000E+000	2.60000E-001	1.38333E-003	7	...........	-327.66
	891	1.784	2.50829E-001	-3.47602E-006	0.00000E+000	2.50000E-001	1.47298E-003	7	...........	-327.66
	892	1.786	2.40790E-001	-3.51918E-006	0.00000E+000	2.40000E-001	1.42298E-003	7	...........	-327.66
	893	1.788	2.30790E-001	-3.56103E-006	0.00000E+000	2.30000E-001	1.46609E-003	7	...........	-327.66
	894	1.79	2.20843E-001	-3.60172E-006	0.00000E+000	2.20000E-001	1.46953E-003	7	...........	-327.66
	895	1.792	2.10776E-001	-3.64075E-006	0.00000E+000	2.10000E-001	1.44540E-003	7	...........	-327.66
	896	1.794	2.00815E-001	-3.67796E-006	0.00000E+000	2.00000E-001	1.45057E-003	7	...........	-327.66
	897	1.796	1.90850E-001	-3.71481E-006	0.00000E+000	1.90000E-001	1.37471E-003	7	...........	-327.66
	898	1.798	1.80804E-001	-3.75092E-006	0.00000E+000	1.80000E-001	1.45747E-003	7	...........	-327.66
	899	1.8	1.70874E-001	-3.78458E-006	0.00000E+000	1.70000E-001	1.46091E-003	7	...........	-327.66
	900	1.802	1.60841E-001	-3.81832E-006	0.00000E+000	1.60000E-001	1.41609E-003	7	...........	-327.66
