EXPLAIN
TAG	CV
TITLE	LABEL	CV50000	Test Identifier
DATE	LABEL	5/9/2025	Date
TIME	LABEL	15:18:21	Time
NOTES	NOTES	1	Notes...
	
PSTAT	PSTAT	REF600P-43058	Potentiostat
VINIT	POTEN	0.00000E+000	T	Initial E (V)
VLIMIT1	POTEN	-9.00000E-001	F	Scan Limit 1 (V)
VLIMIT2	POTEN	6.00000E-001	F	Scan Limit 2 (V)
VFINAL	POTEN	0.00000E+000	T	Final E (V)
SCANRATE	QUANT	4.99999E+004	Scan Rate (mV/s)
STEPSIZE	QUANT	1.00000E+001	Step Size (mV)
CYCLES	IQUANT	3	Cycles (#)
IMODE	SELECTOR	1	I/E Range Mode
IRANGE	QUANT	1.00000E-002	Max Current (mA)
AREA	QUANT	1.00000E+000	Sample Area (cm^2)
EQDELAY	QUANT	5.00000E+000	Equil. Time (s)
IRCOMP	SELECTOR	0	IRComp
PFCOR	QUANT	5.00000E+001	PF Corr. (ohm)
SAMPLINGMODE	SELECTOR	2	Sampling Mode
EOC	QUANT	0.1578626	Open Circuit (V)
ELECTRODETYPE	SELECTOR	0	Electrode Type
STRIPPING	TOGGLE	F	Used for Stripping
SEQUENCER	TOGGLE	TRUE	Run as Sequence
PSTATMODEL	IQUANT	7	Pstat Model
PSTATSECTION	LABEL	REF600P-43058	Pstat Section
PSTATSERIALNO	LABEL	43058	Pstat Serial Number
CTRLMODE	IQUANT	1	Control Mode
ELECTROMETER	IQUANT	0	RE=0 or CS=1
IESTAB	IQUANT	2	I/E Stability
CASPEED	IQUANT	4	Control Amp Speed
CONVENTION	IQUANT	1	Current Convention
ICHRANGE	IQUANT	2	Ich Range
ICHRANGEMODE	TOGGLE	F	Ich Auto Range
ICHOFFSETENABLE	TOGGLE	F	Ich Offset Enable
ICHOFFSET	QUANT	0	Ich Offset (V)
ICHFILTER	IQUANT	1	Ich Filter
VCHRANGE	IQUANT	2	Vch Range
VCHRANGEMODE	TOGGLE	F	Vch Auto Range
VCHOFFSETENABLE	TOGGLE	F	Vch Offset Enable
VCHOFFSET	QUANT	0	Vch Offset (V)
VCHFILTER	IQUANT	1	Vch Filter
ACHRANGE	IQUANT	2	Ach Range
ACHOFFSETENABLE	TOGGLE	F	Ach Offset Enable
ACHOFFSET	QUANT	0	Ach Offset (V)
ACHFILTER	IQUANT	1	Ach Filter
IERANGELOWERLIMIT	IQUANT	1	I/E Range Lower Limit
IERANGEMODE	TOGGLE	F	I/E AutoRange
IERANGE	IQUANT	7	I/E Range
POSFEEDENABLE	TOGGLE	F	Positive Feedback IR Comp
POSFEEDRESISTANCE	QUANT	0	Positive Feedback Resistance (ohm)
ACHSELECT	IQUANT	4	Ach Select
SENSECABLEID	IQUANT	7	Sense Cable ID
PWRCABLEID	IQUANT	7	Power Cable ID
DCCALDATE	LABEL	5/8/2025	DC Calibration Date
ACCALDATE	LABEL	5/8/2025	AC Calibration Date
THERMOSELECT	IQUANT	1	Thermo Select
FRAMEWORKVERSION	LABEL	7.10.4	Framework Version
INSTRUMENTVERSION	LABEL	5.01	Instrument Version
COMMVERSION	LABEL	5.10	Communications Version
CPUPLDVERSION	LABEL	6.00	CPU PLD Version
CTRLPLDVERSION	LABEL	3.21	CTRL PLD Version
PSTATPLDVERSION	LABEL	0.00	PSTAT PLD Version
CURVE1	TABLE
	Pt	T	Vf	Im	Vu	Sig	Ach	IERange	Over	Temp
	#	s	V vs. Ref.	A	V	V	V	#	bits	deg C
	0	0.0002	1.57912E-001	8.65508E-009	0.00000E+000	1.57850E-001	1.11522E-003	7	...........	-327.66
	1	0.0004	1.47987E-001	-1.21651E-006	0.00000E+000	1.47850E-001	1.16522E-003	7	...........	-327.66
	2	0.0006	1.37975E-001	-2.34867E-006	0.00000E+000	1.37850E-001	1.01522E-003	7	...........	-327.66
	3	0.0008	1.27937E-001	-3.28329E-006	0.00000E+000	1.27850E-001	9.65224E-004	7	...........	-327.66
	4	0.001	1.18087E-001	-4.08965E-006	0.00000E+000	1.17850E-001	1.04022E-003	7	...........	-327.66
	5	0.0012	1.07975E-001	-4.80525E-006	0.00000E+000	1.07850E-001	1.04022E-003	7	...........	-327.66
	6	0.0014	9.80123E-002	-5.45484E-006	0.00000E+000	9.78500E-002	1.04022E-003	7	...........	-327.66
	7	0.0016	8.79748E-002	-6.05417E-006	0.00000E+000	8.78500E-002	1.14022E-003	7	...........	-327.66
	8	0.0018	7.80873E-002	-6.61100E-006	0.00000E+000	7.78500E-002	1.16522E-003	7	...........	-327.66
	9	0.002	6.79623E-002	-7.13482E-006	0.00000E+000	6.78500E-002	1.19022E-003	7	...........	-327.66
	10	0.0022	5.79873E-002	-7.63389E-006	0.00000E+000	5.78500E-002	1.19022E-003	7	...........	-327.66
	11	0.0024	4.79123E-002	-8.10820E-006	0.00000E+000	4.78500E-002	1.06522E-003	7	...........	-327.66
	12	0.0026	3.79873E-002	-8.56926E-006	0.00000E+000	3.78500E-002	1.29022E-003	7	...........	-327.66
	13	0.0028	2.80123E-002	-9.00907E-006	0.00000E+000	2.78500E-002	1.11522E-003	7	...........	-327.66
	14	0.003	1.79873E-002	-9.43413E-006	0.00000E+000	1.78500E-002	1.04022E-003	7	...........	-327.66
	15	0.0032	7.93731E-003	-9.84594E-006	0.00000E+000	7.84999E-003	1.06522E-003	7	...........	-327.66
	16	0.0034	-2.02519E-003	-1.02545E-005	0.00000E+000	-2.15001E-003	1.19022E-003	7	...........	-327.66
	17	0.0036	-1.20002E-002	-1.06448E-005	0.00000E+000	-1.21500E-002	1.04022E-003	7	...........	-327.66
	18	0.0038	-2.20002E-002	-1.10298E-005	0.00000E+000	-2.21500E-002	1.19022E-003	7	...........	-327.66
	19	0.004	-3.20377E-002	-1.14102E-005	0.00000E+000	-3.21500E-002	1.14022E-003	7	...........	-327.66
	20	0.0042	-4.20377E-002	-1.17830E-005	0.00000E+000	-4.21500E-002	1.01522E-003	7	...........	-327.66
	21	0.0044	-5.20252E-002	-1.21528E-005	0.00000E+000	-5.21500E-002	1.11522E-003	7	...........	-327.66
	22	0.0046	-6.18877E-002	-1.25181E-005	0.00000E+000	-6.21500E-002	1.09022E-003	7	...........	-327.66
	23	0.0048	-7.20252E-002	-1.28736E-005	0.00000E+000	-7.21500E-002	1.14022E-003	7	...........	-327.66
	24	0.005	-8.20752E-002	-1.32266E-005	0.00000E+000	-8.21500E-002	1.06522E-003	7	...........	-327.66
	25	0.0052	-9.19877E-002	-1.35774E-005	0.00000E+000	-9.21500E-002	1.06522E-003	7	...........	-327.66
	26	0.0054	-1.01950E-001	-1.39247E-005	0.00000E+000	-1.02150E-001	1.14022E-003	7	...........	-327.66
	27	0.0056	-1.12088E-001	-1.42720E-005	0.00000E+000	-1.12150E-001	1.04022E-003	7	...........	-327.66
	28	0.0058	-1.22100E-001	-1.46133E-005	0.00000E+000	-1.22150E-001	1.04022E-003	7	...........	-327.66
	29	0.006	-1.32088E-001	-1.49534E-005	0.00000E+000	-1.32150E-001	1.09022E-003	7	...........	-327.66
	30	0.0062	-1.42013E-001	-1.52899E-005	0.00000E+000	-1.42150E-001	1.24022E-003	7	...........	-327.66
	31	0.0064	-1.52025E-001	-1.56272E-005	0.00000E+000	-1.52150E-001	1.01522E-003	7	...........	-327.66
	32	0.0066	-1.62050E-001	-1.59630E-005	0.00000E+000	-1.62150E-001	1.16522E-003	7	...........	-327.66
	33	0.0068	-1.71950E-001	-1.62933E-005	0.00000E+000	-1.72150E-001	1.24022E-003	7	...........	-327.66
	34	0.007	-1.82000E-001	-1.66296E-005	0.00000E+000	-1.82150E-001	9.65224E-004	7	...........	-327.66
	35	0.0072	-1.91988E-001	-1.69629E-005	0.00000E+000	-1.92150E-001	1.04022E-003	7	...........	-327.66
	36	0.0074	-2.02013E-001	-1.72937E-005	0.00000E+000	-2.02150E-001	1.11522E-003	7	...........	-327.66
	37	0.0076	-2.12013E-001	-1.76285E-005	0.00000E+000	-2.12150E-001	1.01522E-003	7	...........	-327.66
	38	0.0078	-2.21963E-001	-1.79533E-005	0.00000E+000	-2.22150E-001	1.14022E-003	7	...........	-327.66
	39	0.008	-2.32063E-001	-1.82851E-005	0.00000E+000	-2.32150E-001	1.09022E-003	7	...........	-327.66
	40	0.0082	-2.42013E-001	-1.86159E-005	0.00000E+000	-2.42150E-001	9.65224E-004	7	...........	-327.66
	41	0.0084	-2.51963E-001	-1.89429E-005	0.00000E+000	-2.52150E-001	1.01522E-003	7	...........	-327.66
	42	0.0086	-2.61913E-001	-1.92700E-005	0.00000E+000	-2.62150E-001	1.04022E-003	7	...........	-327.66
	43	0.0088	-2.71988E-001	-1.96028E-005	0.00000E+000	-2.72150E-001	1.19022E-003	7	...........	-327.66
	44	0.009	-2.81913E-001	-1.99291E-005	0.00000E+000	-2.82150E-001	1.19022E-003	7	...........	-327.66
	45	0.0092	-2.91950E-001	-2.02554E-005	0.00000E+000	-2.92150E-001	1.21522E-003	7	...........	-327.66
	46	0.0094	-3.01925E-001	-2.05819E-005	0.00000E+000	-3.02150E-001	1.14022E-003	7	...........	-327.66
	47	0.0096	-3.12050E-001	-2.09117E-005	0.00000E+000	-3.12150E-001	1.14022E-003	7	...........	-327.66
	48	0.0098	-3.21950E-001	-2.12410E-005	0.00000E+000	-3.22150E-001	1.11522E-003	7	...........	-327.66
	49	0.01	-3.32025E-001	-2.15680E-005	0.00000E+000	-3.32150E-001	1.19022E-003	7	...........	-327.66
	50	0.0102	-3.41950E-001	-2.18906E-005	0.00000E+000	-3.42150E-001	1.16522E-003	7	...........	-327.66
	51	0.0104	-3.52038E-001	-2.22161E-005	0.00000E+000	-3.52150E-001	1.21522E-003	7	...........	-327.66
	52	0.0106	-3.62013E-001	-2.25459E-005	0.00000E+000	-3.62150E-001	1.09022E-003	7	...........	-327.66
	53	0.0108	-3.71925E-001	-2.28690E-005	0.00000E+000	-3.72150E-001	1.14022E-003	7	...........	-327.66
	54	0.011	-3.81925E-001	-2.31968E-005	0.00000E+000	-3.82150E-001	1.16522E-003	7	...........	-327.66
	55	0.0112	-3.91988E-001	-2.35196E-005	0.00000E+000	-3.92150E-001	1.11522E-003	7	...........	-327.66
	56	0.0114	-4.02025E-001	-2.38428E-005	0.00000E+000	-4.02150E-001	1.09022E-003	7	...........	-327.66
	57	0.0116	-4.11950E-001	-2.41646E-005	0.00000E+000	-4.12150E-001	1.01522E-003	7	...........	-327.66
	58	0.0118	-4.21825E-001	-2.44892E-005	0.00000E+000	-4.22150E-001	1.11522E-003	7	...........	-327.66
	59	0.012	-4.31913E-001	-2.48160E-005	0.00000E+000	-4.32150E-001	1.06522E-003	7	...........	-327.66
	60	0.0122	-4.41813E-001	-2.51333E-005	0.00000E+000	-4.42150E-001	1.14022E-003	7	...........	-327.66
	61	0.0124	-4.51888E-001	-2.54526E-005	0.00000E+000	-4.52150E-001	1.14022E-003	7	...........	-327.66
	62	0.0126	-4.61813E-001	-2.57726E-005	0.00000E+000	-4.62150E-001	1.04022E-003	7	...........	-327.66
	63	0.0128	-4.71988E-001	-2.60924E-005	0.00000E+000	-4.72150E-001	1.11522E-003	7	...........	-327.66
	64	0.013	-4.81975E-001	-2.64124E-005	0.00000E+000	-4.82150E-001	1.14022E-003	7	...........	-327.66
	65	0.0132	-4.91988E-001	-2.67247E-005	0.00000E+000	-4.92150E-001	1.06522E-003	7	...........	-327.66
	66	0.0134	-5.01825E-001	-2.70380E-005	0.00000E+000	-5.02150E-001	1.04022E-003	7	...........	-327.66
	67	0.0136	-5.12025E-001	-2.73531E-005	0.00000E+000	-5.12150E-001	1.14022E-003	7	...........	-327.66
	68	0.0138	-5.21763E-001	-2.76651E-005	0.00000E+000	-5.22150E-001	1.01522E-003	7	...........	-327.66
	69	0.014	-5.31950E-001	-2.79724E-005	0.00000E+000	-5.32150E-001	1.24022E-003	7	...........	-327.66
	70	0.0142	-5.41813E-001	-2.82792E-005	0.00000E+000	-5.42150E-001	1.09022E-003	7	...........	-327.66
	71	0.0144	-5.51888E-001	-2.85815E-005	0.00000E+000	-5.52150E-001	1.06522E-003	7	...........	-327.66
	72	0.0146	-5.61913E-001	-2.88908E-005	0.00000E+000	-5.62150E-001	1.04022E-003	7	...........	-327.66
	73	0.0148	-5.71913E-001	-2.91898E-005	0.00000E+000	-5.72150E-001	1.09022E-003	7	...........	-327.66
	74	0.015	-5.81863E-001	-2.94874E-005	0.00000E+000	-5.82150E-001	1.09022E-003	7	...........	-327.66
	75	0.0152	-5.91913E-001	-2.97844E-005	0.00000E+000	-5.92150E-001	9.40224E-004	7	...........	-327.66
	76	0.0154	-6.01925E-001	-3.00734E-005	0.00000E+000	-6.02150E-001	1.06522E-003	7	...........	-327.66
	77	0.0156	-6.11938E-001	-3.03595E-005	0.00000E+000	-6.12150E-001	1.06522E-003	7	...........	-327.66
	78	0.0158	-6.21725E-001	-3.06460E-005	0.00000E+000	-6.22150E-001	1.06522E-003	7	...........	-327.66
	79	0.016	-6.31875E-001	-3.09286E-005	0.00000E+000	-6.32150E-001	1.01522E-003	7	...........	-327.66
	80	0.0162	-6.41788E-001	-3.12036E-005	0.00000E+000	-6.42150E-001	1.14022E-003	7	...........	-327.66
	81	0.0164	-6.51775E-001	-3.14761E-005	0.00000E+000	-6.52150E-001	9.40224E-004	7	...........	-327.66
	82	0.0166	-6.61738E-001	-3.17424E-005	0.00000E+000	-6.62150E-001	1.04022E-003	7	...........	-327.66
	83	0.0168	-6.71863E-001	-3.20075E-005	0.00000E+000	-6.72150E-001	1.01522E-003	7	...........	-327.66
	84	0.017	-6.81863E-001	-3.22627E-005	0.00000E+000	-6.82150E-001	1.06522E-003	7	...........	-327.66
	85	0.0172	-6.91838E-001	-3.25138E-005	0.00000E+000	-6.92150E-001	1.19022E-003	7	...........	-327.66
	86	0.0174	-7.01763E-001	-3.27598E-005	0.00000E+000	-7.02150E-001	1.19022E-003	7	...........	-327.66
	87	0.0176	-7.11875E-001	-3.29968E-005	0.00000E+000	-7.12150E-001	9.40224E-004	7	...........	-327.66
	88	0.0178	-7.21788E-001	-3.32329E-005	0.00000E+000	-7.22150E-001	1.21522E-003	7	...........	-327.66
	89	0.018	-7.31825E-001	-3.34539E-005	0.00000E+000	-7.32150E-001	1.29022E-003	7	...........	-327.66
	90	0.0182	-7.41750E-001	-3.36654E-005	0.00000E+000	-7.42150E-001	1.11522E-003	7	...........	-327.66
	91	0.0184	-7.51750E-001	-3.38712E-005	0.00000E+000	-7.52150E-001	1.14022E-003	7	...........	-327.66
	92	0.0186	-7.61900E-001	-3.40632E-005	0.00000E+000	-7.62150E-001	1.09022E-003	7	...........	-327.66
	93	0.0188	-7.71750E-001	-3.42478E-005	0.00000E+000	-7.72150E-001	9.90224E-004	7	...........	-327.66
	94	0.019	-7.81750E-001	-3.44208E-005	0.00000E+000	-7.82150E-001	1.04022E-003	7	...........	-327.66
	95	0.0192	-7.91863E-001	-3.45803E-005	0.00000E+000	-7.92150E-001	1.19022E-003	7	...........	-327.66
	96	0.0194	-8.01813E-001	-3.47298E-005	0.00000E+000	-8.02150E-001	1.06522E-003	7	...........	-327.66
	97	0.0196	-8.11825E-001	-3.48598E-005	0.00000E+000	-8.12150E-001	1.11522E-003	7	...........	-327.66
	98	0.0198	-8.21775E-001	-3.49776E-005	0.00000E+000	-8.22150E-001	1.19022E-003	7	...........	-327.66
	99	0.02	-8.31875E-001	-3.50786E-005	0.00000E+000	-8.32150E-001	1.06522E-003	7	...........	-327.66
	100	0.0202	-8.41825E-001	-3.51591E-005	0.00000E+000	-8.42150E-001	1.16522E-003	7	...........	-327.66
	101	0.0204	-8.51825E-001	-3.52209E-005	0.00000E+000	-8.52150E-001	1.19022E-003	7	...........	-327.66
	102	0.0206	-8.61813E-001	-3.52629E-005	0.00000E+000	-8.62150E-001	1.01522E-003	7	...........	-327.66
	103	0.0208	-8.71838E-001	-3.52862E-005	0.00000E+000	-8.72150E-001	1.21522E-003	7	...........	-327.66
	104	0.021	-8.81675E-001	-3.52832E-005	0.00000E+000	-8.82150E-001	1.19022E-003	7	...........	-327.66
	105	0.0212	-8.91875E-001	-3.52557E-005	0.00000E+000	-8.92150E-001	1.11522E-003	7	...........	-327.66
	106	0.0214	-9.01775E-001	-3.52051E-005	0.00000E+000	-9.02150E-001	1.09022E-003	7	...........	-327.66
	107	0.0216	-8.91900E-001	-3.30611E-005	0.00000E+000	-8.92150E-001	1.11522E-003	7	...........	-327.66
	108	0.0218	-8.81650E-001	-3.10338E-005	0.00000E+000	-8.82150E-001	1.09022E-003	7	...........	-327.66
	109	0.022	-8.71950E-001	-2.93138E-005	0.00000E+000	-8.72150E-001	1.14022E-003	7	...........	-327.66
	110	0.0222	-8.61825E-001	-2.77851E-005	0.00000E+000	-8.62150E-001	9.40224E-004	7	...........	-327.66
	111	0.0224	-8.51988E-001	-2.63972E-005	0.00000E+000	-8.52150E-001	9.90224E-004	7	...........	-327.66
	112	0.0226	-8.41913E-001	-2.51028E-005	0.00000E+000	-8.42150E-001	1.16522E-003	7	...........	-327.66
	113	0.0228	-8.31863E-001	-2.38781E-005	0.00000E+000	-8.32150E-001	1.21522E-003	7	...........	-327.66
	114	0.023	-8.21800E-001	-2.27139E-005	0.00000E+000	-8.22150E-001	9.40224E-004	7	...........	-327.66
	115	0.0232	-8.11913E-001	-2.15928E-005	0.00000E+000	-8.12150E-001	1.04022E-003	7	...........	-327.66
	116	0.0234	-8.01813E-001	-2.05111E-005	0.00000E+000	-8.02150E-001	9.90224E-004	7	...........	-327.66
	117	0.0236	-7.92013E-001	-1.94570E-005	0.00000E+000	-7.92150E-001	1.06522E-003	7	...........	-327.66
	118	0.0238	-7.81775E-001	-1.84304E-005	0.00000E+000	-7.82150E-001	1.09022E-003	7	...........	-327.66
	119	0.024	-7.71925E-001	-1.74277E-005	0.00000E+000	-7.72150E-001	1.01522E-003	7	...........	-327.66
	120	0.0242	-7.61925E-001	-1.64498E-005	0.00000E+000	-7.62150E-001	1.21522E-003	7	...........	-327.66
	121	0.0244	-7.51975E-001	-1.54837E-005	0.00000E+000	-7.52150E-001	9.90224E-004	7	...........	-327.66
	122	0.0246	-7.41800E-001	-1.45366E-005	0.00000E+000	-7.42150E-001	1.01522E-003	7	...........	-327.66
	123	0.0248	-7.31900E-001	-1.36040E-005	0.00000E+000	-7.32150E-001	1.09022E-003	7	...........	-327.66
	124	0.025	-7.21913E-001	-1.26853E-005	0.00000E+000	-7.22150E-001	1.09022E-003	7	...........	-327.66
	125	0.0252	-7.12038E-001	-1.17812E-005	0.00000E+000	-7.12150E-001	1.14022E-003	7	...........	-327.66
	126	0.0254	-7.01800E-001	-1.08888E-005	0.00000E+000	-7.02150E-001	1.09022E-003	7	...........	-327.66
	127	0.0256	-6.91975E-001	-1.00147E-005	0.00000E+000	-6.92150E-001	1.04022E-003	7	...........	-327.66
	128	0.0258	-6.81963E-001	-9.14684E-006	0.00000E+000	-6.82150E-001	1.09022E-003	7	...........	-327.66
	129	0.026	-6.71988E-001	-8.29748E-006	0.00000E+000	-6.72150E-001	1.04022E-003	7	...........	-327.66
	130	0.0262	-6.61875E-001	-7.45636E-006	0.00000E+000	-6.62150E-001	1.09022E-003	7	...........	-327.66
	131	0.0264	-6.51975E-001	-6.62625E-006	0.00000E+000	-6.52150E-001	1.09022E-003	7	...........	-327.66
	132	0.0266	-6.42000E-001	-5.81139E-006	0.00000E+000	-6.42150E-001	1.19022E-003	7	...........	-327.66
	133	0.0268	-6.31938E-001	-5.00628E-006	0.00000E+000	-6.32150E-001	1.04022E-003	7	...........	-327.66
	134	0.027	-6.21863E-001	-4.21442E-006	0.00000E+000	-6.22150E-001	1.09022E-003	7	...........	-327.66
	135	0.0272	-6.12013E-001	-3.43056E-006	0.00000E+000	-6.12150E-001	1.09022E-003	7	...........	-327.66
	136	0.0274	-6.01950E-001	-2.66121E-006	0.00000E+000	-6.02150E-001	1.14022E-003	7	...........	-327.66
	137	0.0276	-5.92050E-001	-1.89960E-006	0.00000E+000	-5.92150E-001	1.16522E-003	7	...........	-327.66
	138	0.0278	-5.81988E-001	-1.15400E-006	0.00000E+000	-5.82150E-001	1.29022E-003	7	...........	-327.66
	139	0.028	-5.72013E-001	-4.20153E-007	0.00000E+000	-5.72150E-001	1.29022E-003	7	...........	-327.66
	140	0.0282	-5.62000E-001	3.05446E-007	0.00000E+000	-5.62150E-001	1.09022E-003	7	...........	-327.66
	141	0.0284	-5.52000E-001	1.01979E-006	0.00000E+000	-5.52150E-001	1.24022E-003	7	...........	-327.66
	142	0.0286	-5.42063E-001	1.72189E-006	0.00000E+000	-5.42150E-001	1.11522E-003	7	...........	-327.66
	143	0.0288	-5.32050E-001	2.41723E-006	0.00000E+000	-5.32150E-001	1.21522E-003	7	...........	-327.66
	144	0.029	-5.22125E-001	3.09483E-006	0.00000E+000	-5.22150E-001	1.11522E-003	7	...........	-327.66
	145	0.0292	-5.12088E-001	3.77142E-006	0.00000E+000	-5.12150E-001	1.09022E-003	7	...........	-327.66
	146	0.0294	-5.02038E-001	4.43976E-006	0.00000E+000	-5.02150E-001	1.19022E-003	7	...........	-327.66
	147	0.0296	-4.92063E-001	5.09035E-006	0.00000E+000	-4.92150E-001	1.21522E-003	7	...........	-327.66
	148	0.0298	-4.82088E-001	5.73594E-006	0.00000E+000	-4.82150E-001	1.16522E-003	7	...........	-327.66
	149	0.03	-4.72113E-001	6.37102E-006	0.00000E+000	-4.72150E-001	1.09022E-003	7	...........	-327.66
	150	0.0302	-4.62000E-001	6.99836E-006	0.00000E+000	-4.62150E-001	1.16522E-003	7	...........	-327.66
	151	0.0304	-4.52013E-001	7.61444E-006	0.00000E+000	-4.52150E-001	1.09022E-003	7	...........	-327.66
	152	0.0306	-4.42038E-001	8.22227E-006	0.00000E+000	-4.42150E-001	1.14022E-003	7	...........	-327.66
	153	0.0308	-4.32088E-001	8.82636E-006	0.00000E+000	-4.32150E-001	1.19022E-003	7	...........	-327.66
	154	0.031	-4.21888E-001	9.41844E-006	0.00000E+000	-4.22150E-001	1.29022E-003	7	...........	-327.66
	155	0.0312	-4.12038E-001	1.00053E-005	0.00000E+000	-4.12150E-001	1.11522E-003	7	...........	-327.66
	156	0.0314	-4.02088E-001	1.05781E-005	0.00000E+000	-4.02150E-001	1.01522E-003	7	...........	-327.66
	157	0.0316	-3.92113E-001	1.11447E-005	0.00000E+000	-3.92150E-001	1.19022E-003	7	...........	-327.66
	158	0.0318	-3.82100E-001	1.17022E-005	0.00000E+000	-3.82150E-001	1.19022E-003	7	...........	-327.66
	159	0.032	-3.72000E-001	1.22498E-005	0.00000E+000	-3.72150E-001	1.14022E-003	7	...........	-327.66
	160	0.0322	-3.62138E-001	1.27926E-005	0.00000E+000	-3.62150E-001	1.11522E-003	7	...........	-327.66
	161	0.0324	-3.52113E-001	1.33247E-005	0.00000E+000	-3.52150E-001	1.04022E-003	7	...........	-327.66
	162	0.0326	-3.42063E-001	1.38498E-005	0.00000E+000	-3.42150E-001	1.14022E-003	7	...........	-327.66
	163	0.0328	-3.32113E-001	1.43631E-005	0.00000E+000	-3.32150E-001	1.09022E-003	7	...........	-327.66
	164	0.033	-3.22075E-001	1.48694E-005	0.00000E+000	-3.22150E-001	1.24022E-003	7	...........	-327.66
	165	0.0332	-3.12088E-001	1.53685E-005	0.00000E+000	-3.12150E-001	1.21522E-003	7	...........	-327.66
	166	0.0334	-3.02088E-001	1.58548E-005	0.00000E+000	-3.02150E-001	1.11522E-003	7	...........	-327.66
	167	0.0336	-2.92013E-001	1.63339E-005	0.00000E+000	-2.92150E-001	1.11522E-003	7	...........	-327.66
	168	0.0338	-2.82150E-001	1.68009E-005	0.00000E+000	-2.82150E-001	1.04022E-003	7	...........	-327.66
	169	0.034	-2.72138E-001	1.72613E-005	0.00000E+000	-2.72150E-001	1.04022E-003	7	...........	-327.66
	170	0.0342	-2.62138E-001	1.77108E-005	0.00000E+000	-2.62150E-001	1.01522E-003	7	...........	-327.66
	171	0.0344	-2.52050E-001	1.81504E-005	0.00000E+000	-2.52150E-001	1.14022E-003	7	...........	-327.66
	172	0.0346	-2.41875E-001	1.85782E-005	0.00000E+000	-2.42150E-001	1.11522E-003	7	...........	-327.66
	173	0.0348	-2.32088E-001	1.89995E-005	0.00000E+000	-2.32150E-001	1.06522E-003	7	...........	-327.66
	174	0.035	-2.22088E-001	1.94090E-005	0.00000E+000	-2.22150E-001	1.14022E-003	7	...........	-327.66
	175	0.0352	-2.12025E-001	1.98106E-005	0.00000E+000	-2.12150E-001	1.11522E-003	7	...........	-327.66
	176	0.0354	-2.02188E-001	2.01997E-005	0.00000E+000	-2.02150E-001	1.14022E-003	7	...........	-327.66
	177	0.0356	-1.92075E-001	2.05792E-005	0.00000E+000	-1.92150E-001	1.04022E-003	7	...........	-327.66
	178	0.0358	-1.82150E-001	2.09493E-005	0.00000E+000	-1.82150E-001	1.19022E-003	7	...........	-327.66
	179	0.036	-1.72088E-001	2.13076E-005	0.00000E+000	-1.72150E-001	1.14022E-003	7	...........	-327.66
	180	0.0362	-1.62175E-001	2.16559E-005	0.00000E+000	-1.62150E-001	1.04022E-003	7	...........	-327.66
	181	0.0364	-1.52188E-001	2.19992E-005	0.00000E+000	-1.52150E-001	1.09022E-003	7	...........	-327.66
	182	0.0366	-1.42175E-001	2.23249E-005	0.00000E+000	-1.42150E-001	1.06522E-003	7	...........	-327.66
	183	0.0368	-1.32075E-001	2.26450E-005	0.00000E+000	-1.32150E-001	1.09022E-003	7	...........	-327.66
	184	0.037	-1.22200E-001	2.29553E-005	0.00000E+000	-1.22150E-001	1.11522E-003	7	...........	-327.66
	185	0.0372	-1.12063E-001	2.32596E-005	0.00000E+000	-1.12150E-001	1.11522E-003	7	...........	-327.66
	186	0.0374	-1.02213E-001	2.35494E-005	0.00000E+000	-1.02150E-001	1.14022E-003	7	...........	-327.66
	187	0.0376	-9.20627E-002	2.38319E-005	0.00000E+000	-9.21500E-002	1.04022E-003	7	...........	-327.66
	188	0.0378	-8.22252E-002	2.41052E-005	0.00000E+000	-8.21500E-002	1.11522E-003	7	...........	-327.66
	189	0.038	-7.21377E-002	2.43712E-005	0.00000E+000	-7.21500E-002	1.24022E-003	7	...........	-327.66
	190	0.0382	-6.20377E-002	2.46333E-005	0.00000E+000	-6.21500E-002	1.29022E-003	7	...........	-327.66
	191	0.0384	-5.21252E-002	2.48833E-005	0.00000E+000	-5.21500E-002	1.11522E-003	7	...........	-327.66
	192	0.0386	-4.22377E-002	2.51233E-005	0.00000E+000	-4.21500E-002	1.09022E-003	7	...........	-327.66
	193	0.0388	-3.21627E-002	2.53529E-005	0.00000E+000	-3.21500E-002	1.24022E-003	7	...........	-327.66
	194	0.039	-2.21877E-002	2.55809E-005	0.00000E+000	-2.21500E-002	8.90224E-004	7	...........	-327.66
	195	0.0392	-1.20377E-002	2.57972E-005	0.00000E+000	-1.21500E-002	1.24022E-003	7	...........	-327.66
	196	0.0394	-2.23769E-003	2.60077E-005	0.00000E+000	-2.15001E-003	1.21522E-003	7	...........	-327.66
	197	0.0396	7.84981E-003	2.62095E-005	0.00000E+000	7.84999E-003	1.19022E-003	7	...........	-327.66
	198	0.0398	1.78873E-002	2.64055E-005	0.00000E+000	1.78500E-002	1.29022E-003	7	...........	-327.66
	199	0.04	2.79248E-002	2.65955E-005	0.00000E+000	2.78500E-002	9.65224E-004	7	...........	-327.66
	200	0.0402	3.78123E-002	2.67781E-005	0.00000E+000	3.78500E-002	1.09022E-003	7	...........	-327.66
	201	0.0404	4.77998E-002	2.69521E-005	0.00000E+000	4.78500E-002	1.09022E-003	7	...........	-327.66
	202	0.0406	5.79123E-002	2.71183E-005	0.00000E+000	5.78500E-002	1.16522E-003	7	...........	-327.66
	203	0.0408	6.78623E-002	2.72791E-005	0.00000E+000	6.78500E-002	1.21522E-003	7	...........	-327.66
	204	0.041	7.78748E-002	2.74369E-005	0.00000E+000	7.78500E-002	1.11522E-003	7	...........	-327.66
	205	0.0412	8.78373E-002	2.75824E-005	0.00000E+000	8.78500E-002	1.11522E-003	7	...........	-327.66
	206	0.0414	9.77748E-002	2.77227E-005	0.00000E+000	9.78500E-002	1.14022E-003	7	...........	-327.66
	207	0.0416	1.07887E-001	2.78549E-005	0.00000E+000	1.07850E-001	1.24022E-003	7	...........	-327.66
	208	0.0418	1.17837E-001	2.79822E-005	0.00000E+000	1.17850E-001	1.04022E-003	7	...........	-327.66
	209	0.042	1.27912E-001	2.81022E-005	0.00000E+000	1.27850E-001	1.21522E-003	7	...........	-327.66
	210	0.0422	1.37900E-001	2.82097E-005	0.00000E+000	1.37850E-001	1.06522E-003	7	...........	-327.66
	211	0.0424	1.47900E-001	2.83088E-005	0.00000E+000	1.47850E-001	1.16522E-003	7	...........	-327.66
	212	0.0426	1.57850E-001	2.84008E-005	0.00000E+000	1.57850E-001	9.90224E-004	7	...........	-327.66
	213	0.0428	1.67900E-001	2.84855E-005	0.00000E+000	1.67850E-001	1.19022E-003	7	...........	-327.66
	214	0.043	1.77900E-001	2.85610E-005	0.00000E+000	1.77850E-001	1.01522E-003	7	...........	-327.66
	215	0.0432	1.87875E-001	2.86303E-005	0.00000E+000	1.87850E-001	1.01522E-003	7	...........	-327.66
	216	0.0434	1.97787E-001	2.86828E-005	0.00000E+000	1.97850E-001	1.14022E-003	7	...........	-327.66
	217	0.0436	2.07862E-001	2.87328E-005	0.00000E+000	2.07850E-001	1.09022E-003	7	...........	-327.66
	218	0.0438	2.17812E-001	2.87706E-005	0.00000E+000	2.17850E-001	1.11522E-003	7	...........	-327.66
	219	0.044	2.27837E-001	2.88003E-005	0.00000E+000	2.27850E-001	1.19022E-003	7	...........	-327.66
	220	0.0442	2.37875E-001	2.88283E-005	0.00000E+000	2.37850E-001	1.06522E-003	7	...........	-327.66
	221	0.0444	2.47912E-001	2.88398E-005	0.00000E+000	2.47850E-001	1.01522E-003	7	...........	-327.66
	222	0.0446	2.57712E-001	2.88491E-005	0.00000E+000	2.57850E-001	9.65224E-004	7	...........	-327.66
	223	0.0448	2.67887E-001	2.88528E-005	0.00000E+000	2.67850E-001	1.16522E-003	7	...........	-327.66
	224	0.045	2.77812E-001	2.88521E-005	0.00000E+000	2.77850E-001	1.11522E-003	7	...........	-327.66
	225	0.0452	2.87825E-001	2.88458E-005	0.00000E+000	2.87850E-001	1.11522E-003	7	...........	-327.66
	226	0.0454	2.97725E-001	2.88326E-005	0.00000E+000	2.97850E-001	1.19022E-003	7	...........	-327.66
	227	0.0456	3.07887E-001	2.88191E-005	0.00000E+000	3.07850E-001	1.04022E-003	7	...........	-327.66
	228	0.0458	3.17812E-001	2.87998E-005	0.00000E+000	3.17850E-001	1.01522E-003	7	...........	-327.66
	229	0.046	3.27887E-001	2.87798E-005	0.00000E+000	3.27850E-001	1.09022E-003	7	...........	-327.66
	230	0.0462	3.37762E-001	2.87561E-005	0.00000E+000	3.37850E-001	1.01522E-003	7	...........	-327.66
	231	0.0464	3.47900E-001	2.87268E-005	0.00000E+000	3.47850E-001	1.01522E-003	7	...........	-327.66
	232	0.0466	3.57725E-001	2.86983E-005	0.00000E+000	3.57850E-001	1.01522E-003	7	...........	-327.66
	233	0.0468	3.67775E-001	2.86708E-005	0.00000E+000	3.67850E-001	1.29022E-003	7	...........	-327.66
	234	0.047	3.77787E-001	2.86376E-005	0.00000E+000	3.77850E-001	1.21522E-003	7	...........	-327.66
	235	0.0472	3.87900E-001	2.86023E-005	0.00000E+000	3.87850E-001	1.24022E-003	7	...........	-327.66
	236	0.0474	3.97975E-001	2.85698E-005	0.00000E+000	3.97850E-001	1.19022E-003	7	...........	-327.66
	237	0.0476	4.07825E-001	2.85320E-005	0.00000E+000	4.07850E-001	1.11522E-003	7	...........	-327.66
	238	0.0478	4.17725E-001	2.84953E-005	0.00000E+000	4.17850E-001	1.11522E-003	7	...........	-327.66
	239	0.048	4.27887E-001	2.84588E-005	0.00000E+000	4.27850E-001	1.14022E-003	7	...........	-327.66
	240	0.0482	4.37762E-001	2.84220E-005	0.00000E+000	4.37850E-001	1.14022E-003	7	...........	-327.66
	241	0.0484	4.47887E-001	2.83878E-005	0.00000E+000	4.47850E-001	1.24022E-003	7	...........	-327.66
	242	0.0486	4.57800E-001	2.83538E-005	0.00000E+000	4.57850E-001	1.29022E-003	7	...........	-327.66
	243	0.0488	4.67887E-001	2.83203E-005	0.00000E+000	4.67850E-001	1.14022E-003	7	...........	-327.66
	244	0.049	4.77937E-001	2.82858E-005	0.00000E+000	4.77850E-001	1.09022E-003	7	...........	-327.66
	245	0.0492	4.87925E-001	2.82535E-005	0.00000E+000	4.87850E-001	1.14022E-003	7	...........	-327.66
	246	0.0494	4.97825E-001	2.82200E-005	0.00000E+000	4.97850E-001	1.19022E-003	7	...........	-327.66
	247	0.0496	5.07825E-001	2.81912E-005	0.00000E+000	5.07850E-001	1.06522E-003	7	...........	-327.66
	248	0.0498	5.17762E-001	2.81642E-005	0.00000E+000	5.17850E-001	1.19022E-003	7	...........	-327.66
	249	0.05	5.27912E-001	2.81415E-005	0.00000E+000	5.27850E-001	1.21522E-003	7	...........	-327.66
	250	0.0502	5.37775E-001	2.81197E-005	0.00000E+000	5.37850E-001	1.24022E-003	7	...........	-327.66
	251	0.0504	5.47887E-001	2.80962E-005	0.00000E+000	5.47850E-001	1.09022E-003	7	...........	-327.66
	252	0.0506	5.57762E-001	2.80810E-005	0.00000E+000	5.57850E-001	1.14022E-003	7	...........	-327.66
	253	0.0508	5.67787E-001	2.80645E-005	0.00000E+000	5.67850E-001	1.16522E-003	7	...........	-327.66
	254	0.051	5.77825E-001	2.80532E-005	0.00000E+000	5.77850E-001	9.90224E-004	7	...........	-327.66
	255	0.0512	5.87862E-001	2.80445E-005	0.00000E+000	5.87850E-001	1.06522E-003	7	...........	-327.66
	256	0.0514	5.97712E-001	2.80365E-005	0.00000E+000	5.97850E-001	1.06522E-003	7	...........	-327.66
CURVE2	TABLE
	Pt	T	Vf	Im	Vu	Sig	Ach	IERange	Over	Temp
	#	s	V vs. Ref.	A	V	V	V	#	bits	deg C
	257	0.0516	5.90037E-001	2.58292E-005	0.00000E+000	5.90000E-001	1.11522E-003	7	...........	-327.66
	258	0.0518	5.80000E-001	2.35281E-005	0.00000E+000	5.80000E-001	1.04022E-003	7	...........	-327.66
	259	0.052	5.70087E-001	2.16071E-005	0.00000E+000	5.70000E-001	1.09022E-003	7	...........	-327.66
	260	0.0522	5.59975E-001	1.99566E-005	0.00000E+000	5.60000E-001	9.90224E-004	7	...........	-327.66
	261	0.0524	5.50000E-001	1.85049E-005	0.00000E+000	5.50000E-001	1.14022E-003	7	...........	-327.66
	262	0.0526	5.39887E-001	1.71970E-005	0.00000E+000	5.40000E-001	1.06522E-003	7	...........	-327.66
	263	0.0528	5.30000E-001	1.59976E-005	0.00000E+000	5.30000E-001	1.21522E-003	7	...........	-327.66
	264	0.053	5.19987E-001	1.48907E-005	0.00000E+000	5.20000E-001	1.19022E-003	7	...........	-327.66
	265	0.0532	5.09912E-001	1.38488E-005	0.00000E+000	5.10000E-001	1.06522E-003	7	...........	-327.66
	266	0.0534	4.99937E-001	1.28729E-005	0.00000E+000	5.00000E-001	1.09022E-003	7	...........	-327.66
	267	0.0536	4.89875E-001	1.19458E-005	0.00000E+000	4.90000E-001	1.09022E-003	7	...........	-327.66
	268	0.0538	4.79987E-001	1.10732E-005	0.00000E+000	4.80000E-001	1.11522E-003	7	...........	-327.66
	269	0.054	4.69912E-001	1.02328E-005	0.00000E+000	4.70000E-001	1.09022E-003	7	...........	-327.66
	270	0.0542	4.59987E-001	9.42519E-006	0.00000E+000	4.60000E-001	9.40224E-004	7	...........	-327.66
	271	0.0544	4.50025E-001	8.65583E-006	0.00000E+000	4.50000E-001	1.09022E-003	7	...........	-327.66
	272	0.0546	4.39937E-001	7.90798E-006	0.00000E+000	4.40000E-001	1.16522E-003	7	...........	-327.66
	273	0.0548	4.30037E-001	7.19588E-006	0.00000E+000	4.30000E-001	1.09022E-003	7	...........	-327.66
	274	0.055	4.20087E-001	6.50129E-006	0.00000E+000	4.20000E-001	1.04022E-003	7	...........	-327.66
	275	0.0552	4.10025E-001	5.83395E-006	0.00000E+000	4.10000E-001	1.04022E-003	7	...........	-327.66
	276	0.0554	3.99962E-001	5.17586E-006	0.00000E+000	4.00000E-001	1.14022E-003	7	...........	-327.66
	277	0.0556	3.90000E-001	4.54427E-006	0.00000E+000	3.90000E-001	1.04022E-003	7	...........	-327.66
	278	0.0558	3.80037E-001	3.92469E-006	0.00000E+000	3.80000E-001	1.06522E-003	7	...........	-327.66
	279	0.056	3.70025E-001	3.32761E-006	0.00000E+000	3.70000E-001	1.09022E-003	7	...........	-327.66
	280	0.0562	3.59937E-001	2.74103E-006	0.00000E+000	3.60000E-001	1.09022E-003	7	...........	-327.66
	281	0.0564	3.50025E-001	2.16845E-006	0.00000E+000	3.50000E-001	9.65224E-004	7	...........	-327.66
	282	0.0566	3.40012E-001	1.60812E-006	0.00000E+000	3.40000E-001	9.90224E-004	7	...........	-327.66
	283	0.0568	3.30050E-001	1.06355E-006	0.00000E+000	3.30000E-001	1.16522E-003	7	...........	-327.66
	284	0.057	3.20137E-001	5.30976E-007	0.00000E+000	3.20000E-001	1.24022E-003	7	...........	-327.66
	285	0.0572	3.09987E-001	7.65495E-009	0.00000E+000	3.10000E-001	1.06522E-003	7	...........	-327.66
	286	0.0574	3.00050E-001	-5.05665E-007	0.00000E+000	3.00000E-001	1.11522E-003	7	...........	-327.66
	287	0.0576	2.90112E-001	-1.00923E-006	0.00000E+000	2.90000E-001	1.14022E-003	7	...........	-327.66
	288	0.0578	2.80087E-001	-1.50205E-006	0.00000E+000	2.80000E-001	1.21522E-003	7	...........	-327.66
	289	0.058	2.70137E-001	-1.98737E-006	0.00000E+000	2.70000E-001	1.19022E-003	7	...........	-327.66
	290	0.0582	2.60000E-001	-2.46393E-006	0.00000E+000	2.60000E-001	1.19022E-003	7	...........	-327.66
	291	0.0584	2.50062E-001	-2.93125E-006	0.00000E+000	2.50000E-001	1.26522E-003	7	...........	-327.66
	292	0.0586	2.40087E-001	-3.39106E-006	0.00000E+000	2.40000E-001	1.11522E-003	7	...........	-327.66
	293	0.0588	2.30062E-001	-3.84712E-006	0.00000E+000	2.30000E-001	1.21522E-003	7	...........	-327.66
	294	0.059	2.20075E-001	-4.29593E-006	0.00000E+000	2.20000E-001	9.40224E-004	7	...........	-327.66
	295	0.0592	2.10200E-001	-4.73574E-006	0.00000E+000	2.10000E-001	1.09022E-003	7	...........	-327.66
	296	0.0594	2.00062E-001	-5.17180E-006	0.00000E+000	2.00000E-001	1.19022E-003	7	...........	-327.66
	297	0.0596	1.90162E-001	-5.59661E-006	0.00000E+000	1.90000E-001	1.21522E-003	7	...........	-327.66
	298	0.0598	1.80025E-001	-6.02242E-006	0.00000E+000	1.80000E-001	1.01522E-003	7	...........	-327.66
	299	0.06	1.70187E-001	-6.43822E-006	0.00000E+000	1.70000E-001	1.29022E-003	7	...........	-327.66
	300	0.0602	1.60087E-001	-6.84903E-006	0.00000E+000	1.60000E-001	1.14022E-003	7	...........	-327.66
	301	0.0604	1.50112E-001	-7.25333E-006	0.00000E+000	1.50000E-001	9.90224E-004	7	...........	-327.66
	302	0.0606	1.40212E-001	-7.65864E-006	0.00000E+000	1.40000E-001	1.14022E-003	7	...........	-327.66
	303	0.0608	1.30187E-001	-8.05294E-006	0.00000E+000	1.30000E-001	1.04022E-003	7	...........	-327.66
	304	0.061	1.20187E-001	-8.44950E-006	0.00000E+000	1.20000E-001	1.09022E-003	7	...........	-327.66
	305	0.0612	1.10137E-001	-8.83880E-006	0.00000E+000	1.10000E-001	1.29022E-003	7	...........	-327.66
	306	0.0614	1.00025E-001	-9.22560E-006	0.00000E+000	1.00000E-001	1.09022E-003	7	...........	-327.66
	307	0.0616	9.02248E-002	-9.60565E-006	0.00000E+000	9.00000E-002	1.04022E-003	7	...........	-327.66
	308	0.0618	8.00123E-002	-9.98521E-006	0.00000E+000	8.00000E-002	1.14022E-003	7	...........	-327.66
	309	0.062	7.01873E-002	-1.03575E-005	0.00000E+000	7.00000E-002	1.04022E-003	7	...........	-327.66
	310	0.0622	6.01498E-002	-1.07291E-005	0.00000E+000	6.00000E-002	1.14022E-003	7	...........	-327.66
	311	0.0624	5.02373E-002	-1.10976E-005	0.00000E+000	5.00000E-002	9.90224E-004	7	...........	-327.66
	312	0.0626	3.99248E-002	-1.14629E-005	0.00000E+000	4.00000E-002	1.14022E-003	7	...........	-327.66
	313	0.0628	3.01873E-002	-1.18240E-005	0.00000E+000	3.00000E-002	9.90224E-004	7	...........	-327.66
	314	0.063	2.01623E-002	-1.21793E-005	0.00000E+000	2.00000E-002	1.06522E-003	7	...........	-327.66
	315	0.0632	1.02248E-002	-1.25368E-005	0.00000E+000	9.99999E-003	1.21522E-003	7	...........	-327.66
	316	0.0634	4.98125E-005	-1.28881E-005	0.00000E+000	-1.49012E-008	1.11522E-003	7	...........	-327.66
	317	0.0636	-9.71269E-003	-1.32379E-005	0.00000E+000	-1.00000E-002	1.21522E-003	7	...........	-327.66
	318	0.0638	-1.98252E-002	-1.35829E-005	0.00000E+000	-2.00000E-002	1.11522E-003	7	...........	-327.66
	319	0.064	-2.98002E-002	-1.39235E-005	0.00000E+000	-3.00000E-002	1.14022E-003	7	...........	-327.66
	320	0.0642	-3.99127E-002	-1.42680E-005	0.00000E+000	-4.00000E-002	1.16522E-003	7	...........	-327.66
	321	0.0644	-4.97627E-002	-1.46066E-005	0.00000E+000	-5.00000E-002	1.24022E-003	7	...........	-327.66
	322	0.0646	-5.99127E-002	-1.49409E-005	0.00000E+000	-6.00000E-002	1.14022E-003	7	...........	-327.66
	323	0.0648	-6.97127E-002	-1.52737E-005	0.00000E+000	-7.00000E-002	1.09022E-003	7	...........	-327.66
	324	0.065	-7.99252E-002	-1.56030E-005	0.00000E+000	-8.00000E-002	1.19022E-003	7	...........	-327.66
	325	0.0652	-8.98377E-002	-1.59328E-005	0.00000E+000	-9.00000E-002	1.11522E-003	7	...........	-327.66
	326	0.0654	-9.98877E-002	-1.62601E-005	0.00000E+000	-1.00000E-001	1.14022E-003	7	...........	-327.66
	327	0.0656	-1.09763E-001	-1.65864E-005	0.00000E+000	-1.10000E-001	1.14022E-003	7	...........	-327.66
	328	0.0658	-1.19863E-001	-1.69087E-005	0.00000E+000	-1.20000E-001	1.04022E-003	7	...........	-327.66
	329	0.066	-1.29863E-001	-1.72289E-005	0.00000E+000	-1.30000E-001	1.04022E-003	7	...........	-327.66
	330	0.0662	-1.39913E-001	-1.75480E-005	0.00000E+000	-1.40000E-001	1.04022E-003	7	...........	-327.66
	331	0.0664	-1.49850E-001	-1.78643E-005	0.00000E+000	-1.50000E-001	1.01522E-003	7	...........	-327.66
	332	0.0666	-1.59813E-001	-1.81821E-005	0.00000E+000	-1.60000E-001	1.04022E-003	7	...........	-327.66
	333	0.0668	-1.69750E-001	-1.84984E-005	0.00000E+000	-1.70000E-001	1.06522E-003	7	...........	-327.66
	334	0.067	-1.79950E-001	-1.88132E-005	0.00000E+000	-1.80000E-001	1.16522E-003	7	...........	-327.66
	335	0.0672	-1.89638E-001	-1.91277E-005	0.00000E+000	-1.90000E-001	1.06522E-003	7	...........	-327.66
	336	0.0674	-1.99913E-001	-1.94447E-005	0.00000E+000	-2.00000E-001	1.24022E-003	7	...........	-327.66
	337	0.0676	-2.09750E-001	-1.97568E-005	0.00000E+000	-2.10000E-001	1.11522E-003	7	...........	-327.66
	338	0.0678	-2.19813E-001	-2.00686E-005	0.00000E+000	-2.20000E-001	1.21522E-003	7	...........	-327.66
	339	0.068	-2.29713E-001	-2.03841E-005	0.00000E+000	-2.30000E-001	1.14022E-003	7	...........	-327.66
	340	0.0682	-2.39800E-001	-2.06969E-005	0.00000E+000	-2.40000E-001	1.16522E-003	7	...........	-327.66
	341	0.0684	-2.49750E-001	-2.10097E-005	0.00000E+000	-2.50000E-001	1.01522E-003	7	...........	-327.66
	342	0.0686	-2.59800E-001	-2.13183E-005	0.00000E+000	-2.60000E-001	1.29022E-003	7	...........	-327.66
	343	0.0688	-2.69725E-001	-2.16298E-005	0.00000E+000	-2.70000E-001	1.01522E-003	7	...........	-327.66
	344	0.069	-2.79888E-001	-2.19371E-005	0.00000E+000	-2.80000E-001	9.90224E-004	7	...........	-327.66
	345	0.0692	-2.89738E-001	-2.22459E-005	0.00000E+000	-2.90000E-001	9.65224E-004	7	...........	-327.66
	346	0.0694	-2.99875E-001	-2.25552E-005	0.00000E+000	-3.00000E-001	1.19022E-003	7	...........	-327.66
	347	0.0696	-3.09688E-001	-2.28592E-005	0.00000E+000	-3.10000E-001	1.24022E-003	7	...........	-327.66
	348	0.0698	-3.19850E-001	-2.31665E-005	0.00000E+000	-3.20000E-001	1.16522E-003	7	...........	-327.66
	349	0.07	-3.29788E-001	-2.34725E-005	0.00000E+000	-3.30000E-001	1.11522E-003	7	...........	-327.66
	350	0.0702	-3.39838E-001	-2.37768E-005	0.00000E+000	-3.40000E-001	1.09022E-003	7	...........	-327.66
	351	0.0704	-3.49675E-001	-2.40799E-005	0.00000E+000	-3.50000E-001	1.19022E-003	7	...........	-327.66
	352	0.0706	-3.59763E-001	-2.43812E-005	0.00000E+000	-3.60000E-001	1.16522E-003	7	...........	-327.66
	353	0.0708	-3.69700E-001	-2.46850E-005	0.00000E+000	-3.70000E-001	1.29022E-003	7	...........	-327.66
	354	0.071	-3.79850E-001	-2.49930E-005	0.00000E+000	-3.80000E-001	1.16522E-003	7	...........	-327.66
	355	0.0712	-3.89700E-001	-2.52895E-005	0.00000E+000	-3.90000E-001	1.14022E-003	7	...........	-327.66
	356	0.0714	-3.99738E-001	-2.55848E-005	0.00000E+000	-4.00000E-001	1.06522E-003	7	...........	-327.66
	357	0.0716	-4.09813E-001	-2.58834E-005	0.00000E+000	-4.10000E-001	1.11522E-003	7	...........	-327.66
	358	0.0718	-4.19663E-001	-2.61784E-005	0.00000E+000	-4.20000E-001	1.14022E-003	7	...........	-327.66
	359	0.072	-4.29650E-001	-2.64742E-005	0.00000E+000	-4.30000E-001	1.04022E-003	7	...........	-327.66
	360	0.0722	-4.39700E-001	-2.67667E-005	0.00000E+000	-4.40000E-001	1.04022E-003	7	...........	-327.66
	361	0.0724	-4.49688E-001	-2.70548E-005	0.00000E+000	-4.50000E-001	1.01522E-003	7	...........	-327.66
	362	0.0726	-4.59825E-001	-2.73503E-005	0.00000E+000	-4.60000E-001	1.01522E-003	7	...........	-327.66
	363	0.0728	-4.69713E-001	-2.76331E-005	0.00000E+000	-4.70000E-001	1.19022E-003	7	...........	-327.66
	364	0.073	-4.79750E-001	-2.79177E-005	0.00000E+000	-4.80000E-001	9.90224E-004	7	...........	-327.66
	365	0.0732	-4.89663E-001	-2.82017E-005	0.00000E+000	-4.90000E-001	1.19022E-003	7	...........	-327.66
	366	0.0734	-4.99738E-001	-2.84812E-005	0.00000E+000	-5.00000E-001	1.14022E-003	7	...........	-327.66
	367	0.0736	-5.09688E-001	-2.87618E-005	0.00000E+000	-5.10000E-001	1.29022E-003	7	...........	-327.66
	368	0.0738	-5.19663E-001	-2.90403E-005	0.00000E+000	-5.20000E-001	1.09022E-003	7	...........	-327.66
	369	0.074	-5.29738E-001	-2.93146E-005	0.00000E+000	-5.30000E-001	1.16522E-003	7	...........	-327.66
	370	0.0742	-5.39788E-001	-2.95831E-005	0.00000E+000	-5.40000E-001	1.19022E-003	7	...........	-327.66
	371	0.0744	-5.49663E-001	-2.98524E-005	0.00000E+000	-5.50000E-001	1.06522E-003	7	...........	-327.66
	372	0.0746	-5.59713E-001	-3.01127E-005	0.00000E+000	-5.60000E-001	1.09022E-003	7	...........	-327.66
	373	0.0748	-5.69663E-001	-3.03755E-005	0.00000E+000	-5.70000E-001	1.01522E-003	7	...........	-327.66
	374	0.075	-5.79750E-001	-3.06320E-005	0.00000E+000	-5.80000E-001	1.24022E-003	7	...........	-327.66
	375	0.0752	-5.89725E-001	-3.08918E-005	0.00000E+000	-5.90000E-001	1.04022E-003	7	...........	-327.66
	376	0.0754	-5.99725E-001	-3.11376E-005	0.00000E+000	-6.00000E-001	1.11522E-003	7	...........	-327.66
	377	0.0756	-6.09788E-001	-3.13879E-005	0.00000E+000	-6.10000E-001	1.11522E-003	7	...........	-327.66
	378	0.0758	-6.19763E-001	-3.16329E-005	0.00000E+000	-6.20000E-001	1.11522E-003	7	...........	-327.66
	379	0.076	-6.29650E-001	-3.18704E-005	0.00000E+000	-6.30000E-001	9.40224E-004	7	...........	-327.66
	380	0.0762	-6.39713E-001	-3.21032E-005	0.00000E+000	-6.40000E-001	1.04022E-003	7	...........	-327.66
	381	0.0764	-6.49688E-001	-3.23370E-005	0.00000E+000	-6.50000E-001	1.16522E-003	7	...........	-327.66
	382	0.0766	-6.59738E-001	-3.25595E-005	0.00000E+000	-6.60000E-001	1.14022E-003	7	...........	-327.66
	383	0.0768	-6.69663E-001	-3.27831E-005	0.00000E+000	-6.70000E-001	1.16522E-003	7	...........	-327.66
	384	0.077	-6.79688E-001	-3.29983E-005	0.00000E+000	-6.80000E-001	1.19022E-003	7	...........	-327.66
	385	0.0772	-6.89675E-001	-3.32046E-005	0.00000E+000	-6.90000E-001	1.19022E-003	7	...........	-327.66
	386	0.0774	-6.99588E-001	-3.34094E-005	0.00000E+000	-7.00000E-001	1.11522E-003	7	...........	-327.66
	387	0.0776	-7.09625E-001	-3.36057E-005	0.00000E+000	-7.10000E-001	9.65224E-004	7	...........	-327.66
	388	0.0778	-7.19688E-001	-3.37920E-005	0.00000E+000	-7.20000E-001	1.16522E-003	7	...........	-327.66
	389	0.078	-7.29663E-001	-3.39772E-005	0.00000E+000	-7.30000E-001	1.11522E-003	7	...........	-327.66
	390	0.0782	-7.39700E-001	-3.41518E-005	0.00000E+000	-7.40000E-001	1.01522E-003	7	...........	-327.66
	391	0.0784	-7.49650E-001	-3.43188E-005	0.00000E+000	-7.50000E-001	1.16522E-003	7	...........	-327.66
	392	0.0786	-7.59638E-001	-3.44788E-005	0.00000E+000	-7.60000E-001	1.11522E-003	7	...........	-327.66
	393	0.0788	-7.69663E-001	-3.46243E-005	0.00000E+000	-7.70000E-001	1.16522E-003	7	...........	-327.66
	394	0.079	-7.79563E-001	-3.47653E-005	0.00000E+000	-7.80000E-001	1.06522E-003	7	...........	-327.66
	395	0.0792	-7.89675E-001	-3.48959E-005	0.00000E+000	-7.90000E-001	1.21522E-003	7	...........	-327.66
	396	0.0794	-7.99750E-001	-3.50114E-005	0.00000E+000	-8.00000E-001	1.11522E-003	7	...........	-327.66
	397	0.0796	-8.09675E-001	-3.51176E-005	0.00000E+000	-8.10000E-001	1.19022E-003	7	...........	-327.66
	398	0.0798	-8.19700E-001	-3.52159E-005	0.00000E+000	-8.20000E-001	1.09022E-003	7	...........	-327.66
	399	0.08	-8.29638E-001	-3.52997E-005	0.00000E+000	-8.30000E-001	1.01522E-003	7	...........	-327.66
	400	0.0802	-8.39675E-001	-3.53694E-005	0.00000E+000	-8.40000E-001	1.11522E-003	7	...........	-327.66
	401	0.0804	-8.49688E-001	-3.54269E-005	0.00000E+000	-8.50000E-001	1.21522E-003	7	...........	-327.66
	402	0.0806	-8.59625E-001	-3.54664E-005	0.00000E+000	-8.60000E-001	1.09022E-003	7	...........	-327.66
	403	0.0808	-8.69688E-001	-3.54884E-005	0.00000E+000	-8.70000E-001	1.21522E-003	7	...........	-327.66
	404	0.081	-8.79613E-001	-3.54902E-005	0.00000E+000	-8.80000E-001	1.04022E-003	7	...........	-327.66
	405	0.0812	-8.89700E-001	-3.54852E-005	0.00000E+000	-8.90000E-001	1.21522E-003	7	...........	-327.66
	406	0.0814	-8.99663E-001	-3.54529E-005	0.00000E+000	-9.00000E-001	1.14022E-003	7	...........	-327.66
	407	0.0816	-8.89675E-001	-3.32469E-005	0.00000E+000	-8.90000E-001	1.19022E-003	7	...........	-327.66
	408	0.0818	-8.79725E-001	-3.10863E-005	0.00000E+000	-8.80000E-001	1.16522E-003	7	...........	-327.66
	409	0.082	-8.69713E-001	-2.92173E-005	0.00000E+000	-8.70000E-001	1.19022E-003	7	...........	-327.66
	410	0.0822	-8.59750E-001	-2.75436E-005	0.00000E+000	-8.60000E-001	1.24022E-003	7	...........	-327.66
	411	0.0824	-8.49738E-001	-2.60006E-005	0.00000E+000	-8.50000E-001	1.06522E-003	7	...........	-327.66
	412	0.0826	-8.39813E-001	-2.45624E-005	0.00000E+000	-8.40000E-001	1.06522E-003	7	...........	-327.66
	413	0.0828	-8.29663E-001	-2.31998E-005	0.00000E+000	-8.30000E-001	1.14022E-003	7	...........	-327.66
	414	0.083	-8.19813E-001	-2.18993E-005	0.00000E+000	-8.20000E-001	1.16522E-003	7	...........	-327.66
	415	0.0832	-8.09663E-001	-2.06552E-005	0.00000E+000	-8.10000E-001	1.09022E-003	7	...........	-327.66
	416	0.0834	-7.99663E-001	-1.94485E-005	0.00000E+000	-8.00000E-001	1.09022E-003	7	...........	-327.66
	417	0.0836	-7.89650E-001	-1.82866E-005	0.00000E+000	-7.90000E-001	1.14022E-003	7	...........	-327.66
	418	0.0838	-7.79713E-001	-1.71574E-005	0.00000E+000	-7.80000E-001	9.90224E-004	7	...........	-327.66
	419	0.084	-7.69713E-001	-1.60533E-005	0.00000E+000	-7.70000E-001	1.11522E-003	7	...........	-327.66
	420	0.0842	-7.59788E-001	-1.49851E-005	0.00000E+000	-7.60000E-001	9.65224E-004	7	...........	-327.66
	421	0.0844	-7.49700E-001	-1.39382E-005	0.00000E+000	-7.50000E-001	1.14022E-003	7	...........	-327.66
	422	0.0846	-7.39925E-001	-1.29184E-005	0.00000E+000	-7.40000E-001	1.04022E-003	7	...........	-327.66
	423	0.0848	-7.29725E-001	-1.19160E-005	0.00000E+000	-7.30000E-001	1.04022E-003	7	...........	-327.66
	424	0.085	-7.19775E-001	-1.09413E-005	0.00000E+000	-7.20000E-001	1.16522E-003	7	...........	-327.66
	425	0.0852	-7.09650E-001	-9.98946E-006	0.00000E+000	-7.10000E-001	1.06522E-003	7	...........	-327.66
	426	0.0854	-6.99825E-001	-9.05608E-006	0.00000E+000	-7.00000E-001	9.90224E-004	7	...........	-327.66
	427	0.0856	-6.89700E-001	-8.14020E-006	0.00000E+000	-6.90000E-001	9.40224E-004	7	...........	-327.66
	428	0.0858	-6.79725E-001	-7.24683E-006	0.00000E+000	-6.80000E-001	1.19022E-003	7	...........	-327.66
	429	0.086	-6.69750E-001	-6.37171E-006	0.00000E+000	-6.70000E-001	1.14022E-003	7	...........	-327.66
	430	0.0862	-6.59813E-001	-5.52035E-006	0.00000E+000	-6.60000E-001	1.11522E-003	7	...........	-327.66
	431	0.0864	-6.49738E-001	-4.67823E-006	0.00000E+000	-6.50000E-001	1.14022E-003	7	...........	-327.66
	432	0.0866	-6.39925E-001	-3.85237E-006	0.00000E+000	-6.40000E-001	1.01522E-003	7	...........	-327.66
	433	0.0868	-6.29700E-001	-3.05226E-006	0.00000E+000	-6.30000E-001	9.90224E-004	7	...........	-327.66
	434	0.087	-6.19838E-001	-2.26365E-006	0.00000E+000	-6.20000E-001	9.90224E-004	7	...........	-327.66
	435	0.0872	-6.09925E-001	-1.49180E-006	0.00000E+000	-6.10000E-001	1.01522E-003	7	...........	-327.66
	436	0.0874	-5.99950E-001	-7.34696E-007	0.00000E+000	-6.00000E-001	1.11522E-003	7	...........	-327.66
	437	0.0876	-5.89825E-001	8.15501E-009	0.00000E+000	-5.90000E-001	1.14022E-003	7	...........	-327.66
	438	0.0878	-5.79938E-001	7.38505E-007	0.00000E+000	-5.80000E-001	1.14022E-003	7	...........	-327.66
	439	0.088	-5.69738E-001	1.45910E-006	0.00000E+000	-5.70000E-001	1.09022E-003	7	...........	-327.66
	440	0.0882	-5.59975E-001	2.16045E-006	0.00000E+000	-5.60000E-001	1.14022E-003	7	...........	-327.66
	441	0.0884	-5.49800E-001	2.85429E-006	0.00000E+000	-5.50000E-001	1.09022E-003	7	...........	-327.66
	442	0.0886	-5.39925E-001	3.53664E-006	0.00000E+000	-5.40000E-001	1.14022E-003	7	...........	-327.66
	443	0.0888	-5.29913E-001	4.21698E-006	0.00000E+000	-5.30000E-001	1.19022E-003	7	...........	-327.66
	444	0.089	-5.19988E-001	4.87657E-006	0.00000E+000	-5.20000E-001	1.14022E-003	7	...........	-327.66
	445	0.0892	-5.09888E-001	5.53116E-006	0.00000E+000	-5.10000E-001	1.24022E-003	7	...........	-327.66
	446	0.0894	-4.99913E-001	6.17850E-006	0.00000E+000	-5.00000E-001	1.09022E-003	7	...........	-327.66
	447	0.0896	-4.89863E-001	6.81958E-006	0.00000E+000	-4.90000E-001	9.40224E-004	7	...........	-327.66
	448	0.0898	-4.80000E-001	7.44892E-006	0.00000E+000	-4.80000E-001	1.06522E-003	7	...........	-327.66
	449	0.09	-4.69788E-001	8.07375E-006	0.00000E+000	-4.70000E-001	1.06522E-003	7	...........	-327.66
	450	0.0902	-4.59963E-001	8.69434E-006	0.00000E+000	-4.60000E-001	1.04022E-003	7	...........	-327.66
	451	0.0904	-4.49888E-001	9.30592E-006	0.00000E+000	-4.50000E-001	1.01522E-003	7	...........	-327.66
	452	0.0906	-4.39988E-001	9.91000E-006	0.00000E+000	-4.40000E-001	1.01522E-003	7	...........	-327.66
	453	0.0908	-4.29975E-001	1.05066E-005	0.00000E+000	-4.30000E-001	1.19022E-003	7	...........	-327.66
	454	0.091	-4.19963E-001	1.10949E-005	0.00000E+000	-4.20000E-001	9.90224E-004	7	...........	-327.66
	455	0.0912	-4.09938E-001	1.16807E-005	0.00000E+000	-4.10000E-001	1.29022E-003	7	...........	-327.66
	456	0.0914	-3.99975E-001	1.22561E-005	0.00000E+000	-4.00000E-001	9.40224E-004	7	...........	-327.66
	457	0.0916	-3.89913E-001	1.28297E-005	0.00000E+000	-3.90000E-001	1.04022E-003	7	...........	-327.66
	458	0.0918	-3.79988E-001	1.33925E-005	0.00000E+000	-3.80000E-001	1.11522E-003	7	...........	-327.66
	459	0.092	-3.69675E-001	1.39493E-005	0.00000E+000	-3.70000E-001	1.06522E-003	7	...........	-327.66
	460	0.0922	-3.59975E-001	1.44961E-005	0.00000E+000	-3.60000E-001	1.09022E-003	7	...........	-327.66
	461	0.0924	-3.49938E-001	1.50350E-005	0.00000E+000	-3.50000E-001	1.04022E-003	7	...........	-327.66
	462	0.0926	-3.39988E-001	1.55685E-005	0.00000E+000	-3.40000E-001	1.06522E-003	7	...........	-327.66
	463	0.0928	-3.29850E-001	1.60868E-005	0.00000E+000	-3.30000E-001	1.14022E-003	7	...........	-327.66
	464	0.093	-3.20038E-001	1.66049E-005	0.00000E+000	-3.20000E-001	1.01522E-003	7	...........	-327.66
	465	0.0932	-3.10013E-001	1.71057E-005	0.00000E+000	-3.10000E-001	1.04022E-003	7	...........	-327.66
	466	0.0934	-2.99963E-001	1.76016E-005	0.00000E+000	-3.00000E-001	9.40224E-004	7	...........	-327.66
	467	0.0936	-2.89850E-001	1.80889E-005	0.00000E+000	-2.90000E-001	1.09022E-003	7	...........	-327.66
	468	0.0938	-2.80038E-001	1.85647E-005	0.00000E+000	-2.80000E-001	1.01522E-003	7	...........	-327.66
	469	0.094	-2.69838E-001	1.90307E-005	0.00000E+000	-2.70000E-001	1.14022E-003	7	...........	-327.66
	470	0.0942	-2.60038E-001	1.94818E-005	0.00000E+000	-2.60000E-001	1.09022E-003	7	...........	-327.66
	471	0.0944	-2.49938E-001	1.99221E-005	0.00000E+000	-2.50000E-001	1.04022E-003	7	...........	-327.66
	472	0.0946	-2.39975E-001	2.03562E-005	0.00000E+000	-2.40000E-001	1.14022E-003	7	...........	-327.66
	473	0.0948	-2.30013E-001	2.07777E-005	0.00000E+000	-2.30000E-001	9.65224E-004	7	...........	-327.66
	474	0.095	-2.19925E-001	2.11878E-005	0.00000E+000	-2.20000E-001	1.16522E-003	7	...........	-327.66
	475	0.0952	-2.10013E-001	2.15821E-005	0.00000E+000	-2.10000E-001	1.19022E-003	7	...........	-327.66
	476	0.0954	-2.00063E-001	2.19711E-005	0.00000E+000	-2.00000E-001	1.04022E-003	7	...........	-327.66
	477	0.0956	-1.90025E-001	2.23457E-005	0.00000E+000	-1.90000E-001	9.65224E-004	7	...........	-327.66
	478	0.0958	-1.79988E-001	2.27127E-005	0.00000E+000	-1.80000E-001	1.09022E-003	7	...........	-327.66
	479	0.096	-1.70000E-001	2.30638E-005	0.00000E+000	-1.70000E-001	9.90224E-004	7	...........	-327.66
	480	0.0962	-1.60050E-001	2.34051E-005	0.00000E+000	-1.60000E-001	1.06522E-003	7	...........	-327.66
	481	0.0964	-1.50000E-001	2.37384E-005	0.00000E+000	-1.50000E-001	8.90224E-004	7	...........	-327.66
	482	0.0966	-1.39875E-001	2.40654E-005	0.00000E+000	-1.40000E-001	1.06522E-003	7	...........	-327.66
	483	0.0968	-1.30000E-001	2.43752E-005	0.00000E+000	-1.30000E-001	1.06522E-003	7	...........	-327.66
	484	0.097	-1.20025E-001	2.46728E-005	0.00000E+000	-1.20000E-001	1.04022E-003	7	...........	-327.66
	485	0.0972	-1.09938E-001	2.49676E-005	0.00000E+000	-1.10000E-001	1.11522E-003	7	...........	-327.66
	486	0.0974	-1.00038E-001	2.52473E-005	0.00000E+000	-1.00000E-001	1.04022E-003	7	...........	-327.66
	487	0.0976	-8.99377E-002	2.55254E-005	0.00000E+000	-9.00000E-002	1.09022E-003	7	...........	-327.66
	488	0.0978	-8.00127E-002	2.57839E-005	0.00000E+000	-8.00000E-002	1.09022E-003	7	...........	-327.66
	489	0.098	-7.00377E-002	2.60402E-005	0.00000E+000	-7.00000E-002	1.04022E-003	7	...........	-327.66
	490	0.0982	-6.00627E-002	2.62895E-005	0.00000E+000	-6.00000E-002	1.01522E-003	7	...........	-327.66
	491	0.0984	-4.99127E-002	2.65278E-005	0.00000E+000	-5.00000E-002	1.29022E-003	7	...........	-327.66
	492	0.0986	-4.00002E-002	2.67633E-005	0.00000E+000	-4.00000E-002	1.01522E-003	7	...........	-327.66
	493	0.0988	-3.00877E-002	2.69871E-005	0.00000E+000	-3.00000E-002	1.01522E-003	7	...........	-327.66
	494	0.099	-2.00627E-002	2.72054E-005	0.00000E+000	-2.00000E-002	1.29022E-003	7	...........	-327.66
	495	0.0992	-9.87519E-003	2.74186E-005	0.00000E+000	-1.00000E-002	1.19022E-003	7	...........	-327.66
	496	0.0994	-6.26875E-005	2.76224E-005	0.00000E+000	-1.49012E-008	1.14022E-003	7	...........	-327.66
	497	0.0996	9.97481E-003	2.78237E-005	0.00000E+000	9.99999E-003	1.14022E-003	7	...........	-327.66
	498	0.0998	2.00373E-002	2.80147E-005	0.00000E+000	2.00000E-002	1.29022E-003	7	...........	-327.66
	499	0.1	2.99498E-002	2.82082E-005	0.00000E+000	3.00000E-002	1.29022E-003	7	...........	-327.66
	500	0.1002	3.98998E-002	2.83940E-005	0.00000E+000	4.00000E-002	1.09022E-003	7	...........	-327.66
	501	0.1004	5.00373E-002	2.85695E-005	0.00000E+000	5.00000E-002	9.90224E-004	7	...........	-327.66
	502	0.1006	5.99748E-002	2.87426E-005	0.00000E+000	6.00000E-002	1.21522E-003	7	...........	-327.66
	503	0.1008	7.00123E-002	2.89006E-005	0.00000E+000	7.00000E-002	1.09022E-003	7	...........	-327.66
	504	0.101	7.99373E-002	2.90479E-005	0.00000E+000	8.00000E-002	1.06522E-003	7	...........	-327.66
	505	0.1012	9.00623E-002	2.91869E-005	0.00000E+000	9.00000E-002	1.11522E-003	7	...........	-327.66
	506	0.1014	9.99623E-002	2.93164E-005	0.00000E+000	1.00000E-001	1.21522E-003	7	...........	-327.66
	507	0.1016	1.10000E-001	2.94419E-005	0.00000E+000	1.10000E-001	1.16522E-003	7	...........	-327.66
	508	0.1018	1.19912E-001	2.95504E-005	0.00000E+000	1.20000E-001	9.90224E-004	7	...........	-327.66
	509	0.102	1.29950E-001	2.96569E-005	0.00000E+000	1.30000E-001	1.04022E-003	7	...........	-327.66
	510	0.1022	1.40075E-001	2.97470E-005	0.00000E+000	1.40000E-001	1.01522E-003	7	...........	-327.66
	511	0.1024	1.50037E-001	2.98340E-005	0.00000E+000	1.50000E-001	1.09022E-003	7	...........	-327.66
	512	0.1026	1.59975E-001	2.99042E-005	0.00000E+000	1.60000E-001	1.09022E-003	7	...........	-327.66
	513	0.1028	1.70125E-001	2.99727E-005	0.00000E+000	1.70000E-001	1.04022E-003	7	...........	-327.66
	514	0.103	1.79950E-001	3.00245E-005	0.00000E+000	1.80000E-001	1.04022E-003	7	...........	-327.66
	515	0.1032	1.89950E-001	3.00683E-005	0.00000E+000	1.90000E-001	1.09022E-003	7	...........	-327.66
	516	0.1034	1.99937E-001	3.01050E-005	0.00000E+000	2.00000E-001	9.40224E-004	7	...........	-327.66
	517	0.1036	2.09962E-001	3.01335E-005	0.00000E+000	2.10000E-001	9.90224E-004	7	...........	-327.66
	518	0.1038	2.19987E-001	3.01550E-005	0.00000E+000	2.20000E-001	1.11522E-003	7	...........	-327.66
	519	0.104	2.29962E-001	3.01683E-005	0.00000E+000	2.30000E-001	1.06522E-003	7	...........	-327.66
	520	0.1042	2.39887E-001	3.01735E-005	0.00000E+000	2.40000E-001	1.04022E-003	7	...........	-327.66
	521	0.1044	2.49875E-001	3.01760E-005	0.00000E+000	2.50000E-001	1.16522E-003	7	...........	-327.66
	522	0.1046	2.59925E-001	3.01655E-005	0.00000E+000	2.60000E-001	1.06522E-003	7	...........	-327.66
	523	0.1048	2.70025E-001	3.01610E-005	0.00000E+000	2.70000E-001	1.29022E-003	7	...........	-327.66
	524	0.105	2.79937E-001	3.01538E-005	0.00000E+000	2.80000E-001	1.14022E-003	7	...........	-327.66
	525	0.1052	2.89950E-001	3.01363E-005	0.00000E+000	2.90000E-001	1.06522E-003	7	...........	-327.66
	526	0.1054	2.99925E-001	3.01153E-005	0.00000E+000	3.00000E-001	1.09022E-003	7	...........	-327.66
	527	0.1056	3.09937E-001	3.00955E-005	0.00000E+000	3.10000E-001	1.14022E-003	7	...........	-327.66
	528	0.1058	3.19937E-001	3.00675E-005	0.00000E+000	3.20000E-001	1.01522E-003	7	...........	-327.66
	529	0.106	3.29962E-001	3.00385E-005	0.00000E+000	3.30000E-001	1.11522E-003	7	...........	-327.66
	530	0.1062	3.39937E-001	3.00135E-005	0.00000E+000	3.40000E-001	1.06522E-003	7	...........	-327.66
	531	0.1064	3.49987E-001	2.99802E-005	0.00000E+000	3.50000E-001	1.04022E-003	7	...........	-327.66
	532	0.1066	3.59950E-001	2.99487E-005	0.00000E+000	3.60000E-001	1.04022E-003	7	...........	-327.66
	533	0.1068	3.69962E-001	2.99097E-005	0.00000E+000	3.70000E-001	8.90224E-004	7	...........	-327.66
	534	0.107	3.79962E-001	2.98722E-005	0.00000E+000	3.80000E-001	9.90224E-004	7	...........	-327.66
	535	0.1072	3.89937E-001	2.98362E-005	0.00000E+000	3.90000E-001	1.09022E-003	7	...........	-327.66
	536	0.1074	3.99962E-001	2.97967E-005	0.00000E+000	4.00000E-001	1.19022E-003	7	...........	-327.66
	537	0.1076	4.09912E-001	2.97585E-005	0.00000E+000	4.10000E-001	1.19022E-003	7	...........	-327.66
	538	0.1078	4.19987E-001	2.97135E-005	0.00000E+000	4.20000E-001	1.16522E-003	7	...........	-327.66
	539	0.108	4.29937E-001	2.96697E-005	0.00000E+000	4.30000E-001	1.04022E-003	7	...........	-327.66
	540	0.1082	4.39862E-001	2.96324E-005	0.00000E+000	4.40000E-001	1.11522E-003	7	...........	-327.66
	541	0.1084	4.50137E-001	2.95909E-005	0.00000E+000	4.50000E-001	1.24022E-003	7	...........	-327.66
	542	0.1086	4.59925E-001	2.95494E-005	0.00000E+000	4.60000E-001	1.24022E-003	7	...........	-327.66
	543	0.1088	4.69925E-001	2.95124E-005	0.00000E+000	4.70000E-001	1.09022E-003	7	...........	-327.66
	544	0.109	4.79937E-001	2.94699E-005	0.00000E+000	4.80000E-001	1.19022E-003	7	...........	-327.66
	545	0.1092	4.89912E-001	2.94374E-005	0.00000E+000	4.90000E-001	1.16522E-003	7	...........	-327.66
	546	0.1094	4.99937E-001	2.94027E-005	0.00000E+000	5.00000E-001	1.19022E-003	7	...........	-327.66
	547	0.1096	5.09950E-001	2.93699E-005	0.00000E+000	5.10000E-001	1.14022E-003	7	...........	-327.66
	548	0.1098	5.19875E-001	2.93379E-005	0.00000E+000	5.20000E-001	1.14022E-003	7	...........	-327.66
	549	0.11	5.29950E-001	2.93116E-005	0.00000E+000	5.30000E-001	1.21522E-003	7	...........	-327.66
	550	0.1102	5.39937E-001	2.92871E-005	0.00000E+000	5.40000E-001	1.06522E-003	7	...........	-327.66
	551	0.1104	5.49950E-001	2.92671E-005	0.00000E+000	5.50000E-001	1.06522E-003	7	...........	-327.66
	552	0.1106	5.59912E-001	2.92496E-005	0.00000E+000	5.60000E-001	1.11522E-003	7	...........	-327.66
	553	0.1108	5.69937E-001	2.92346E-005	0.00000E+000	5.70000E-001	1.16522E-003	7	...........	-327.66
	554	0.111	5.79912E-001	2.92244E-005	0.00000E+000	5.80000E-001	1.11522E-003	7	...........	-327.66
	555	0.1112	5.89887E-001	2.92179E-005	0.00000E+000	5.90000E-001	1.04022E-003	7	...........	-327.66
	556	0.1114	5.99912E-001	2.92159E-005	0.00000E+000	6.00000E-001	1.04022E-003	7	...........	-327.66
CURVE3	TABLE
	Pt	T	Vf	Im	Vu	Sig	Ach	IERange	Over	Temp
	#	s	V vs. Ref.	A	V	V	V	#	bits	deg C
	557	0.1116	5.90050E-001	2.67123E-005	0.00000E+000	5.90000E-001	1.14022E-003	7	...........	-327.66
	558	0.1118	5.80037E-001	2.43792E-005	0.00000E+000	5.80000E-001	1.01522E-003	7	...........	-327.66
	559	0.112	5.69950E-001	2.24487E-005	0.00000E+000	5.70000E-001	1.09022E-003	7	...........	-327.66
	560	0.1122	5.59937E-001	2.07797E-005	0.00000E+000	5.60000E-001	1.14022E-003	7	...........	-327.66
	561	0.1124	5.49987E-001	1.92918E-005	0.00000E+000	5.50000E-001	1.04022E-003	7	...........	-327.66
	562	0.1126	5.39975E-001	1.79463E-005	0.00000E+000	5.40000E-001	1.14022E-003	7	...........	-327.66
	563	0.1128	5.29962E-001	1.67052E-005	0.00000E+000	5.30000E-001	1.14022E-003	7	...........	-327.66
	564	0.113	5.20012E-001	1.55513E-005	0.00000E+000	5.20000E-001	1.14022E-003	7	...........	-327.66
	565	0.1132	5.09937E-001	1.44681E-005	0.00000E+000	5.10000E-001	1.11522E-003	7	...........	-327.66
	566	0.1134	4.99937E-001	1.34500E-005	0.00000E+000	5.00000E-001	9.65224E-004	7	...........	-327.66
	567	0.1136	4.89937E-001	1.24816E-005	0.00000E+000	4.90000E-001	1.19022E-003	7	...........	-327.66
	568	0.1138	4.79912E-001	1.15542E-005	0.00000E+000	4.80000E-001	1.06522E-003	7	...........	-327.66
	569	0.114	4.69912E-001	1.06711E-005	0.00000E+000	4.70000E-001	1.09022E-003	7	...........	-327.66
	570	0.1142	4.59987E-001	9.82549E-006	0.00000E+000	4.60000E-001	1.09022E-003	7	...........	-327.66
	571	0.1144	4.50050E-001	9.01238E-006	0.00000E+000	4.50000E-001	1.09022E-003	7	...........	-327.66
	572	0.1146	4.39912E-001	8.22428E-006	0.00000E+000	4.40000E-001	1.09022E-003	7	...........	-327.66
	573	0.1148	4.29937E-001	7.46567E-006	0.00000E+000	4.30000E-001	1.11522E-003	7	...........	-327.66
	574	0.115	4.20037E-001	6.72957E-006	0.00000E+000	4.20000E-001	1.04022E-003	7	...........	-327.66
	575	0.1152	4.10137E-001	6.01672E-006	0.00000E+000	4.10000E-001	1.14022E-003	7	...........	-327.66
	576	0.1154	3.99987E-001	5.32938E-006	0.00000E+000	4.00000E-001	1.19022E-003	7	...........	-327.66
	577	0.1156	3.90037E-001	4.65379E-006	0.00000E+000	3.90000E-001	1.19022E-003	7	...........	-327.66
	578	0.1158	3.79962E-001	3.99920E-006	0.00000E+000	3.80000E-001	1.21522E-003	7	...........	-327.66
	579	0.116	3.70012E-001	3.36186E-006	0.00000E+000	3.70000E-001	9.65224E-004	7	...........	-327.66
	580	0.1162	3.59912E-001	2.73978E-006	0.00000E+000	3.60000E-001	1.01522E-003	7	...........	-327.66
	581	0.1164	3.50012E-001	2.13344E-006	0.00000E+000	3.50000E-001	9.90224E-004	7	...........	-327.66
	582	0.1166	3.40025E-001	1.54061E-006	0.00000E+000	3.40000E-001	9.40224E-004	7	...........	-327.66
	583	0.1168	3.30062E-001	9.59535E-007	0.00000E+000	3.30000E-001	1.09022E-003	7	...........	-327.66
	584	0.117	3.20112E-001	3.94458E-007	0.00000E+000	3.20000E-001	1.09022E-003	7	...........	-327.66
	585	0.1172	3.09975E-001	-1.62868E-007	0.00000E+000	3.10000E-001	1.29022E-003	7	...........	-327.66
	586	0.1174	3.00037E-001	-7.07943E-007	0.00000E+000	3.00000E-001	1.11522E-003	7	...........	-327.66
	587	0.1176	2.90100E-001	-1.23977E-006	0.00000E+000	2.90000E-001	1.14022E-003	7	...........	-327.66
	588	0.1178	2.79950E-001	-1.76359E-006	0.00000E+000	2.80000E-001	9.15224E-004	7	...........	-327.66
	589	0.118	2.70137E-001	-2.27591E-006	0.00000E+000	2.70000E-001	1.19022E-003	7	...........	-327.66
	590	0.1182	2.59975E-001	-2.78073E-006	0.00000E+000	2.60000E-001	1.01522E-003	7	...........	-327.66
	591	0.1184	2.50150E-001	-3.27129E-006	0.00000E+000	2.50000E-001	1.14022E-003	7	...........	-327.66
	592	0.1186	2.40050E-001	-3.76186E-006	0.00000E+000	2.40000E-001	9.90224E-004	7	...........	-327.66
	593	0.1188	2.30062E-001	-4.24242E-006	0.00000E+000	2.30000E-001	1.09022E-003	7	...........	-327.66
	594	0.119	2.20025E-001	-4.71674E-006	0.00000E+000	2.20000E-001	9.40224E-004	7	...........	-327.66
	595	0.1192	2.10100E-001	-5.17705E-006	0.00000E+000	2.10000E-001	1.09022E-003	7	...........	-327.66
	596	0.1194	2.00162E-001	-5.63786E-006	0.00000E+000	2.00000E-001	9.40224E-004	7	...........	-327.66
	597	0.1196	1.90212E-001	-6.08718E-006	0.00000E+000	1.90000E-001	1.11522E-003	7	...........	-327.66
	598	0.1198	1.80100E-001	-6.53349E-006	0.00000E+000	1.80000E-001	1.11522E-003	7	...........	-327.66
	599	0.12	1.70250E-001	-6.97530E-006	0.00000E+000	1.70000E-001	1.24022E-003	7	...........	-327.66
	600	0.1202	1.60062E-001	-7.40410E-006	0.00000E+000	1.60000E-001	1.16522E-003	7	...........	-327.66
	601	0.1204	1.50087E-001	-7.83341E-006	0.00000E+000	1.50000E-001	1.11522E-003	7	...........	-327.66
	602	0.1206	1.40200E-001	-8.25922E-006	0.00000E+000	1.40000E-001	9.65224E-004	7	...........	-327.66
	603	0.1208	1.30250E-001	-8.67403E-006	0.00000E+000	1.30000E-001	1.06522E-003	7	...........	-327.66
	604	0.121	1.20125E-001	-9.08708E-006	0.00000E+000	1.20000E-001	1.06522E-003	7	...........	-327.66
	605	0.1212	1.10237E-001	-9.49564E-006	0.00000E+000	1.10000E-001	1.11522E-003	7	...........	-327.66
	606	0.1214	1.00175E-001	-9.89494E-006	0.00000E+000	1.00000E-001	1.04022E-003	7	...........	-327.66
	607	0.1216	9.01873E-002	-1.02957E-005	0.00000E+000	9.00000E-002	1.01522E-003	7	...........	-327.66
	608	0.1218	8.00998E-002	-1.06888E-005	0.00000E+000	8.00000E-002	1.09022E-003	7	...........	-327.66
	609	0.122	7.01873E-002	-1.10799E-005	0.00000E+000	7.00000E-002	1.16522E-003	7	...........	-327.66
	610	0.1222	6.01498E-002	-1.14667E-005	0.00000E+000	6.00000E-002	1.06522E-003	7	...........	-327.66
	611	0.1224	5.02248E-002	-1.18447E-005	0.00000E+000	5.00000E-002	1.06522E-003	7	...........	-327.66
	612	0.1226	4.00248E-002	-1.22273E-005	0.00000E+000	4.00000E-002	1.19022E-003	7	...........	-327.66
	613	0.1228	3.01123E-002	-1.26081E-005	0.00000E+000	3.00000E-002	1.04022E-003	7	...........	-327.66
	614	0.123	2.01623E-002	-1.29761E-005	0.00000E+000	2.00000E-002	1.09022E-003	7	...........	-327.66
	615	0.1232	1.02373E-002	-1.33424E-005	0.00000E+000	9.99999E-003	1.16522E-003	7	...........	-327.66
	616	0.1234	3.73125E-005	-1.37067E-005	0.00000E+000	-1.49012E-008	1.11522E-003	7	...........	-327.66
	617	0.1236	-9.81269E-003	-1.40698E-005	0.00000E+000	-1.00000E-002	1.11522E-003	7	...........	-327.66
	618	0.1238	-1.99627E-002	-1.44336E-005	0.00000E+000	-2.00000E-002	1.16522E-003	7	...........	-327.66
	619	0.124	-2.98002E-002	-1.47846E-005	0.00000E+000	-3.00000E-002	1.19022E-003	7	...........	-327.66
	620	0.1242	-3.98377E-002	-1.51359E-005	0.00000E+000	-4.00000E-002	1.11522E-003	7	...........	-327.66
	621	0.1244	-4.98877E-002	-1.54852E-005	0.00000E+000	-5.00000E-002	1.09022E-003	7	...........	-327.66
	622	0.1246	-5.98377E-002	-1.58355E-005	0.00000E+000	-6.00000E-002	1.19022E-003	7	...........	-327.66
	623	0.1248	-6.97752E-002	-1.61718E-005	0.00000E+000	-7.00000E-002	1.01522E-003	7	...........	-327.66
	624	0.125	-7.99252E-002	-1.65131E-005	0.00000E+000	-8.00000E-002	1.29022E-003	7	...........	-327.66
	625	0.1252	-8.97877E-002	-1.68499E-005	0.00000E+000	-9.00000E-002	1.29022E-003	7	...........	-327.66
	626	0.1254	-9.98877E-002	-1.71822E-005	0.00000E+000	-1.00000E-001	1.21522E-003	7	...........	-327.66
	627	0.1256	-1.09688E-001	-1.75120E-005	0.00000E+000	-1.10000E-001	1.14022E-003	7	...........	-327.66
	628	0.1258	-1.19938E-001	-1.78435E-005	0.00000E+000	-1.20000E-001	1.16522E-003	7	...........	-327.66
	629	0.126	-1.29913E-001	-1.81653E-005	0.00000E+000	-1.30000E-001	1.14022E-003	7	...........	-327.66
	630	0.1262	-1.39863E-001	-1.84804E-005	0.00000E+000	-1.40000E-001	1.16522E-003	7	...........	-327.66
	631	0.1264	-1.49775E-001	-1.88002E-005	0.00000E+000	-1.50000E-001	1.04022E-003	7	...........	-327.66
	632	0.1266	-1.59825E-001	-1.91172E-005	0.00000E+000	-1.60000E-001	1.01522E-003	7	...........	-327.66
	633	0.1268	-1.69775E-001	-1.94330E-005	0.00000E+000	-1.70000E-001	1.24022E-003	7	...........	-327.66
	634	0.127	-1.79900E-001	-1.97465E-005	0.00000E+000	-1.80000E-001	1.04022E-003	7	...........	-327.66
	635	0.1272	-1.89663E-001	-2.00538E-005	0.00000E+000	-1.90000E-001	1.06522E-003	7	...........	-327.66
	636	0.1274	-1.99988E-001	-2.03666E-005	0.00000E+000	-2.00000E-001	1.04022E-003	7	...........	-327.66
	637	0.1276	-2.09813E-001	-2.06787E-005	0.00000E+000	-2.10000E-001	1.06522E-003	7	...........	-327.66
	638	0.1278	-2.19750E-001	-2.09827E-005	0.00000E+000	-2.20000E-001	1.06522E-003	7	...........	-327.66
	639	0.128	-2.29750E-001	-2.12920E-005	0.00000E+000	-2.30000E-001	1.09022E-003	7	...........	-327.66
	640	0.1282	-2.39900E-001	-2.15993E-005	0.00000E+000	-2.40000E-001	1.16522E-003	7	...........	-327.66
	641	0.1284	-2.49788E-001	-2.19038E-005	0.00000E+000	-2.50000E-001	1.11522E-003	7	...........	-327.66
	642	0.1286	-2.59675E-001	-2.22114E-005	0.00000E+000	-2.60000E-001	1.09022E-003	7	...........	-327.66
	643	0.1288	-2.69725E-001	-2.25147E-005	0.00000E+000	-2.70000E-001	1.11522E-003	7	...........	-327.66
	644	0.129	-2.79700E-001	-2.28190E-005	0.00000E+000	-2.80000E-001	1.01522E-003	7	...........	-327.66
	645	0.1292	-2.89713E-001	-2.31202E-005	0.00000E+000	-2.90000E-001	9.65224E-004	7	...........	-327.66
	646	0.1294	-2.99788E-001	-2.34230E-005	0.00000E+000	-3.00000E-001	1.14022E-003	7	...........	-327.66
	647	0.1296	-3.09838E-001	-2.37278E-005	0.00000E+000	-3.10000E-001	1.04022E-003	7	...........	-327.66
	648	0.1298	-3.19813E-001	-2.40296E-005	0.00000E+000	-3.20000E-001	1.11522E-003	7	...........	-327.66
	649	0.13	-3.29888E-001	-2.43287E-005	0.00000E+000	-3.30000E-001	1.01522E-003	7	...........	-327.66
	650	0.1302	-3.39763E-001	-2.46315E-005	0.00000E+000	-3.40000E-001	1.14022E-003	7	...........	-327.66
	651	0.1304	-3.49638E-001	-2.49270E-005	0.00000E+000	-3.50000E-001	1.21522E-003	7	...........	-327.66
	652	0.1306	-3.59813E-001	-2.52225E-005	0.00000E+000	-3.60000E-001	9.65224E-004	7	...........	-327.66
	653	0.1308	-3.69688E-001	-2.55213E-005	0.00000E+000	-3.70000E-001	1.14022E-003	7	...........	-327.66
	654	0.131	-3.79800E-001	-2.58164E-005	0.00000E+000	-3.80000E-001	1.11522E-003	7	...........	-327.66
	655	0.1312	-3.89663E-001	-2.61059E-005	0.00000E+000	-3.90000E-001	1.21522E-003	7	...........	-327.66
	656	0.1314	-3.99800E-001	-2.64002E-005	0.00000E+000	-4.00000E-001	1.29022E-003	7	...........	-327.66
	657	0.1316	-4.09663E-001	-2.66895E-005	0.00000E+000	-4.10000E-001	1.11522E-003	7	...........	-327.66
	658	0.1318	-4.19638E-001	-2.69805E-005	0.00000E+000	-4.20000E-001	1.29022E-003	7	...........	-327.66
	659	0.132	-4.29700E-001	-2.72671E-005	0.00000E+000	-4.30000E-001	1.09022E-003	7	...........	-327.66
	660	0.1322	-4.39775E-001	-2.75521E-005	0.00000E+000	-4.40000E-001	1.11522E-003	7	...........	-327.66
	661	0.1324	-4.49750E-001	-2.78371E-005	0.00000E+000	-4.50000E-001	1.11522E-003	7	...........	-327.66
	662	0.1326	-4.59775E-001	-2.81182E-005	0.00000E+000	-4.60000E-001	1.06522E-003	7	...........	-327.66
	663	0.1328	-4.69675E-001	-2.84002E-005	0.00000E+000	-4.70000E-001	1.14022E-003	7	...........	-327.66
	664	0.133	-4.79775E-001	-2.86785E-005	0.00000E+000	-4.80000E-001	1.14022E-003	7	...........	-327.66
	665	0.1332	-4.89688E-001	-2.89508E-005	0.00000E+000	-4.90000E-001	1.06522E-003	7	...........	-327.66
	666	0.1334	-4.99713E-001	-2.92246E-005	0.00000E+000	-5.00000E-001	1.14022E-003	7	...........	-327.66
	667	0.1336	-5.09713E-001	-2.94969E-005	0.00000E+000	-5.10000E-001	1.11522E-003	7	...........	-327.66
	668	0.1338	-5.19800E-001	-2.97609E-005	0.00000E+000	-5.20000E-001	1.16522E-003	7	...........	-327.66
	669	0.134	-5.29750E-001	-3.00274E-005	0.00000E+000	-5.30000E-001	1.06522E-003	7	...........	-327.66
	670	0.1342	-5.39750E-001	-3.02867E-005	0.00000E+000	-5.40000E-001	1.29022E-003	7	...........	-327.66
	671	0.1344	-5.49738E-001	-3.05443E-005	0.00000E+000	-5.50000E-001	1.29022E-003	7	...........	-327.66
	672	0.1346	-5.59700E-001	-3.07970E-005	0.00000E+000	-5.60000E-001	1.19022E-003	7	...........	-327.66
	673	0.1348	-5.69725E-001	-3.10491E-005	0.00000E+000	-5.70000E-001	1.21522E-003	7	...........	-327.66
	674	0.135	-5.79688E-001	-3.12969E-005	0.00000E+000	-5.80000E-001	1.06522E-003	7	...........	-327.66
	675	0.1352	-5.89713E-001	-3.15431E-005	0.00000E+000	-5.90000E-001	1.16522E-003	7	...........	-327.66
	676	0.1354	-5.99688E-001	-3.17799E-005	0.00000E+000	-6.00000E-001	1.19022E-003	7	...........	-327.66
	677	0.1356	-6.09763E-001	-3.20197E-005	0.00000E+000	-6.10000E-001	1.14022E-003	7	...........	-327.66
	678	0.1358	-6.19613E-001	-3.22492E-005	0.00000E+000	-6.20000E-001	1.04022E-003	7	...........	-327.66
	679	0.136	-6.29625E-001	-3.24743E-005	0.00000E+000	-6.30000E-001	1.04022E-003	7	...........	-327.66
	680	0.1362	-6.39775E-001	-3.26996E-005	0.00000E+000	-6.40000E-001	1.09022E-003	7	...........	-327.66
	681	0.1364	-6.49663E-001	-3.29178E-005	0.00000E+000	-6.50000E-001	1.04022E-003	7	...........	-327.66
	682	0.1366	-6.59663E-001	-3.31321E-005	0.00000E+000	-6.60000E-001	1.14022E-003	7	...........	-327.66
	683	0.1368	-6.69625E-001	-3.33416E-005	0.00000E+000	-6.70000E-001	1.14022E-003	7	...........	-327.66
	684	0.137	-6.79663E-001	-3.35419E-005	0.00000E+000	-6.80000E-001	1.09022E-003	7	...........	-327.66
	685	0.1372	-6.89713E-001	-3.37374E-005	0.00000E+000	-6.90000E-001	1.16522E-003	7	...........	-327.66
	686	0.1374	-6.99788E-001	-3.39255E-005	0.00000E+000	-7.00000E-001	1.16522E-003	7	...........	-327.66
	687	0.1376	-7.09625E-001	-3.41090E-005	0.00000E+000	-7.10000E-001	1.16522E-003	7	...........	-327.66
	688	0.1378	-7.19663E-001	-3.42823E-005	0.00000E+000	-7.20000E-001	9.90224E-004	7	...........	-327.66
	689	0.138	-7.29650E-001	-3.44513E-005	0.00000E+000	-7.30000E-001	1.11522E-003	7	...........	-327.66
	690	0.1382	-7.39713E-001	-3.46131E-005	0.00000E+000	-7.40000E-001	1.04022E-003	7	...........	-327.66
	691	0.1384	-7.49675E-001	-3.47683E-005	0.00000E+000	-7.50000E-001	1.06522E-003	7	...........	-327.66
	692	0.1386	-7.59725E-001	-3.49126E-005	0.00000E+000	-7.60000E-001	1.01522E-003	7	...........	-327.66
	693	0.1388	-7.69650E-001	-3.50459E-005	0.00000E+000	-7.70000E-001	1.24022E-003	7	...........	-327.66
	694	0.139	-7.79663E-001	-3.51741E-005	0.00000E+000	-7.80000E-001	1.19022E-003	7	...........	-327.66
	695	0.1392	-7.89625E-001	-3.52919E-005	0.00000E+000	-7.90000E-001	1.14022E-003	7	...........	-327.66
	696	0.1394	-7.99663E-001	-3.53969E-005	0.00000E+000	-8.00000E-001	1.11522E-003	7	...........	-327.66
	697	0.1396	-8.09638E-001	-3.54952E-005	0.00000E+000	-8.10000E-001	1.06522E-003	7	...........	-327.66
	698	0.1398	-8.19725E-001	-3.55777E-005	0.00000E+000	-8.20000E-001	1.04022E-003	7	...........	-327.66
	699	0.14	-8.29650E-001	-3.56485E-005	0.00000E+000	-8.30000E-001	1.06522E-003	7	...........	-327.66
	700	0.1402	-8.39713E-001	-3.57070E-005	0.00000E+000	-8.40000E-001	1.06522E-003	7	...........	-327.66
	701	0.1404	-8.49650E-001	-3.57485E-005	0.00000E+000	-8.50000E-001	9.65224E-004	7	...........	-327.66
	702	0.1406	-8.59688E-001	-3.57795E-005	0.00000E+000	-8.60000E-001	1.14022E-003	7	...........	-327.66
	703	0.1408	-8.69638E-001	-3.57940E-005	0.00000E+000	-8.70000E-001	1.06522E-003	7	...........	-327.66
	704	0.141	-8.79638E-001	-3.57907E-005	0.00000E+000	-8.80000E-001	1.19022E-003	7	...........	-327.66
	705	0.1412	-8.89688E-001	-3.57730E-005	0.00000E+000	-8.90000E-001	1.06522E-003	7	...........	-327.66
	706	0.1414	-8.99663E-001	-3.57330E-005	0.00000E+000	-9.00000E-001	1.01522E-003	7	...........	-327.66
	707	0.1416	-8.89738E-001	-3.35032E-005	0.00000E+000	-8.90000E-001	9.65224E-004	7	...........	-327.66
	708	0.1418	-8.79775E-001	-3.12941E-005	0.00000E+000	-8.80000E-001	1.06522E-003	7	...........	-327.66
	709	0.142	-8.69663E-001	-2.93726E-005	0.00000E+000	-8.70000E-001	1.19022E-003	7	...........	-327.66
	710	0.1422	-8.59788E-001	-2.76461E-005	0.00000E+000	-8.60000E-001	1.21522E-003	7	...........	-327.66
	711	0.1424	-8.49738E-001	-2.60526E-005	0.00000E+000	-8.50000E-001	1.14022E-003	7	...........	-327.66
	712	0.1426	-8.39788E-001	-2.45614E-005	0.00000E+000	-8.40000E-001	1.01522E-003	7	...........	-327.66
	713	0.1428	-8.29650E-001	-2.31535E-005	0.00000E+000	-8.30000E-001	1.24022E-003	7	...........	-327.66
	714	0.143	-8.19763E-001	-2.18101E-005	0.00000E+000	-8.20000E-001	1.16522E-003	7	...........	-327.66
	715	0.1432	-8.09700E-001	-2.05199E-005	0.00000E+000	-8.10000E-001	1.04022E-003	7	...........	-327.66
	716	0.1434	-7.99763E-001	-1.92717E-005	0.00000E+000	-8.00000E-001	1.11522E-003	7	...........	-327.66
	717	0.1436	-7.89713E-001	-1.80693E-005	0.00000E+000	-7.90000E-001	1.14022E-003	7	...........	-327.66
	718	0.1438	-7.79588E-001	-1.69069E-005	0.00000E+000	-7.80000E-001	1.01522E-003	7	...........	-327.66
	719	0.144	-7.69700E-001	-1.57717E-005	0.00000E+000	-7.70000E-001	1.19022E-003	7	...........	-327.66
	720	0.1442	-7.59775E-001	-1.46701E-005	0.00000E+000	-7.60000E-001	1.11522E-003	7	...........	-327.66
	721	0.1444	-7.49738E-001	-1.35995E-005	0.00000E+000	-7.50000E-001	1.09022E-003	7	...........	-327.66
	722	0.1446	-7.39813E-001	-1.25548E-005	0.00000E+000	-7.40000E-001	1.09022E-003	7	...........	-327.66
	723	0.1448	-7.29775E-001	-1.15364E-005	0.00000E+000	-7.30000E-001	1.14022E-003	7	...........	-327.66
	724	0.145	-7.19713E-001	-1.05408E-005	0.00000E+000	-7.20000E-001	9.65224E-004	7	...........	-327.66
	725	0.1452	-7.09750E-001	-9.56965E-006	0.00000E+000	-7.10000E-001	1.16522E-003	7	...........	-327.66
	726	0.1454	-6.99863E-001	-8.63077E-006	0.00000E+000	-7.00000E-001	1.26522E-003	7	...........	-327.66
	727	0.1456	-6.89775E-001	-7.70915E-006	0.00000E+000	-6.90000E-001	1.14022E-003	7	...........	-327.66
	728	0.1458	-6.79738E-001	-6.80752E-006	0.00000E+000	-6.80000E-001	1.21522E-003	7	...........	-327.66
	729	0.146	-6.69675E-001	-5.92865E-006	0.00000E+000	-6.70000E-001	1.29022E-003	7	...........	-327.66
	730	0.1462	-6.59875E-001	-5.07254E-006	0.00000E+000	-6.60000E-001	1.14022E-003	7	...........	-327.66
	731	0.1464	-6.49750E-001	-4.23392E-006	0.00000E+000	-6.50000E-001	9.90224E-004	7	...........	-327.66
	732	0.1466	-6.39838E-001	-3.41631E-006	0.00000E+000	-6.40000E-001	1.11522E-003	7	...........	-327.66
	733	0.1468	-6.29725E-001	-2.61620E-006	0.00000E+000	-6.30000E-001	1.16522E-003	7	...........	-327.66
	734	0.147	-6.19813E-001	-1.83360E-006	0.00000E+000	-6.20000E-001	1.09022E-003	7	...........	-327.66
	735	0.1472	-6.09900E-001	-1.06674E-006	0.00000E+000	-6.10000E-001	1.06522E-003	7	...........	-327.66
	736	0.1474	-5.99863E-001	-3.12889E-007	0.00000E+000	-6.00000E-001	1.04022E-003	7	...........	-327.66
	737	0.1476	-5.89813E-001	4.23712E-007	0.00000E+000	-5.90000E-001	1.21522E-003	7	...........	-327.66
	738	0.1478	-5.79850E-001	1.14781E-006	0.00000E+000	-5.80000E-001	1.11522E-003	7	...........	-327.66
	739	0.148	-5.69813E-001	1.85666E-006	0.00000E+000	-5.70000E-001	1.09022E-003	7	...........	-327.66
	740	0.1482	-5.60013E-001	2.55150E-006	0.00000E+000	-5.60000E-001	1.21522E-003	7	...........	-327.66
	741	0.1484	-5.49700E-001	3.23960E-006	0.00000E+000	-5.50000E-001	1.14022E-003	7	...........	-327.66
	742	0.1486	-5.39975E-001	3.91769E-006	0.00000E+000	-5.40000E-001	1.11522E-003	7	...........	-327.66
	743	0.1488	-5.29950E-001	4.58503E-006	0.00000E+000	-5.30000E-001	1.16522E-003	7	...........	-327.66
	744	0.149	-5.20063E-001	5.24637E-006	0.00000E+000	-5.20000E-001	1.24022E-003	7	...........	-327.66
	745	0.1492	-5.09813E-001	5.90171E-006	0.00000E+000	-5.10000E-001	9.65224E-004	7	...........	-327.66
	746	0.1494	-4.99875E-001	6.54205E-006	0.00000E+000	-5.00000E-001	1.21522E-003	7	...........	-327.66
	747	0.1496	-4.89825E-001	7.18038E-006	0.00000E+000	-4.90000E-001	1.04022E-003	7	...........	-327.66
	748	0.1498	-4.79938E-001	7.81197E-006	0.00000E+000	-4.80000E-001	1.09022E-003	7	...........	-327.66
	749	0.15	-4.69750E-001	8.44080E-006	0.00000E+000	-4.70000E-001	1.21522E-003	7	...........	-327.66
	750	0.1502	-4.59925E-001	9.05914E-006	0.00000E+000	-4.60000E-001	1.09022E-003	7	...........	-327.66
	751	0.1504	-4.49863E-001	9.67122E-006	0.00000E+000	-4.50000E-001	9.65224E-004	7	...........	-327.66
	752	0.1506	-4.39963E-001	1.02773E-005	0.00000E+000	-4.40000E-001	1.19022E-003	7	...........	-327.66
	753	0.1508	-4.29900E-001	1.08771E-005	0.00000E+000	-4.30000E-001	1.11522E-003	7	...........	-327.66
	754	0.151	-4.19988E-001	1.14762E-005	0.00000E+000	-4.20000E-001	1.19022E-003	7	...........	-327.66
	755	0.1512	-4.09888E-001	1.20663E-005	0.00000E+000	-4.10000E-001	1.19022E-003	7	...........	-327.66
	756	0.1514	-3.99963E-001	1.26521E-005	0.00000E+000	-4.00000E-001	1.19022E-003	7	...........	-327.66
	757	0.1516	-3.89875E-001	1.32260E-005	0.00000E+000	-3.90000E-001	1.29022E-003	7	...........	-327.66
	758	0.1518	-3.80013E-001	1.38000E-005	0.00000E+000	-3.80000E-001	1.09022E-003	7	...........	-327.66
	759	0.152	-3.69838E-001	1.43636E-005	0.00000E+000	-3.70000E-001	1.24022E-003	7	...........	-327.66
	760	0.1522	-3.60038E-001	1.49237E-005	0.00000E+000	-3.60000E-001	1.14022E-003	7	...........	-327.66
	761	0.1524	-3.49950E-001	1.54690E-005	0.00000E+000	-3.50000E-001	1.16522E-003	7	...........	-327.66
	762	0.1526	-3.40063E-001	1.60051E-005	0.00000E+000	-3.40000E-001	1.04022E-003	7	...........	-327.66
	763	0.1528	-3.29988E-001	1.65419E-005	0.00000E+000	-3.30000E-001	1.06522E-003	7	...........	-327.66
	764	0.153	-3.20038E-001	1.70622E-005	0.00000E+000	-3.20000E-001	1.24022E-003	7	...........	-327.66
	765	0.1532	-3.10050E-001	1.75785E-005	0.00000E+000	-3.10000E-001	1.06522E-003	7	...........	-327.66
	766	0.1534	-3.00000E-001	1.80806E-005	0.00000E+000	-3.00000E-001	1.16522E-003	7	...........	-327.66
	767	0.1536	-2.90050E-001	1.85714E-005	0.00000E+000	-2.90000E-001	1.01522E-003	7	...........	-327.66
	768	0.1538	-2.80038E-001	1.90510E-005	0.00000E+000	-2.80000E-001	1.29022E-003	7	...........	-327.66
	769	0.154	-2.69875E-001	1.95271E-005	0.00000E+000	-2.70000E-001	1.19022E-003	7	...........	-327.66
	770	0.1542	-2.60063E-001	1.99854E-005	0.00000E+000	-2.60000E-001	1.14022E-003	7	...........	-327.66
	771	0.1544	-2.50075E-001	2.04334E-005	0.00000E+000	-2.50000E-001	1.16522E-003	7	...........	-327.66
	772	0.1546	-2.40013E-001	2.08722E-005	0.00000E+000	-2.40000E-001	1.04022E-003	7	...........	-327.66
	773	0.1548	-2.30025E-001	2.12973E-005	0.00000E+000	-2.30000E-001	1.24022E-003	7	...........	-327.66
	774	0.155	-2.19925E-001	2.17076E-005	0.00000E+000	-2.20000E-001	1.09022E-003	7	...........	-327.66
	775	0.1552	-2.10038E-001	2.21107E-005	0.00000E+000	-2.10000E-001	1.14022E-003	7	...........	-327.66
	776	0.1554	-2.00050E-001	2.24995E-005	0.00000E+000	-2.00000E-001	1.21522E-003	7	...........	-327.66
	777	0.1556	-1.89963E-001	2.28750E-005	0.00000E+000	-1.90000E-001	1.09022E-003	7	...........	-327.66
	778	0.1558	-1.80025E-001	2.32431E-005	0.00000E+000	-1.80000E-001	1.19022E-003	7	...........	-327.66
	779	0.156	-1.69988E-001	2.36014E-005	0.00000E+000	-1.70000E-001	1.14022E-003	7	...........	-327.66
	780	0.1562	-1.60050E-001	2.39419E-005	0.00000E+000	-1.60000E-001	1.24022E-003	7	...........	-327.66
	781	0.1564	-1.50025E-001	2.42740E-005	0.00000E+000	-1.50000E-001	1.16522E-003	7	...........	-327.66
	782	0.1566	-1.40038E-001	2.45983E-005	0.00000E+000	-1.40000E-001	1.24022E-003	7	...........	-327.66
	783	0.1568	-1.30063E-001	2.49110E-005	0.00000E+000	-1.30000E-001	1.29022E-003	7	...........	-327.66
	784	0.157	-1.20050E-001	2.52113E-005	0.00000E+000	-1.20000E-001	1.16522E-003	7	...........	-327.66
	785	0.1572	-1.09988E-001	2.54999E-005	0.00000E+000	-1.10000E-001	1.21522E-003	7	...........	-327.66
	786	0.1574	-1.00038E-001	2.57822E-005	0.00000E+000	-1.00000E-001	1.14022E-003	7	...........	-327.66
	787	0.1576	-9.00252E-002	2.60547E-005	0.00000E+000	-9.00000E-002	1.21522E-003	7	...........	-327.66
	788	0.1578	-8.00502E-002	2.63220E-005	0.00000E+000	-8.00000E-002	1.19022E-003	7	...........	-327.66
	789	0.158	-7.00877E-002	2.65768E-005	0.00000E+000	-7.00000E-002	1.19022E-003	7	...........	-327.66
	790	0.1582	-6.00502E-002	2.68246E-005	0.00000E+000	-6.00000E-002	1.19022E-003	7	...........	-327.66
	791	0.1584	-5.01002E-002	2.70633E-005	0.00000E+000	-5.00000E-002	1.24022E-003	7	...........	-327.66
	792	0.1586	-4.00627E-002	2.72994E-005	0.00000E+000	-4.00000E-002	1.21522E-003	7	...........	-327.66
	793	0.1588	-3.00252E-002	2.75307E-005	0.00000E+000	-3.00000E-002	9.15224E-004	7	...........	-327.66
	794	0.159	-1.99877E-002	2.77484E-005	0.00000E+000	-2.00000E-002	9.90224E-004	7	...........	-327.66
	795	0.1592	-1.01127E-002	2.79685E-005	0.00000E+000	-1.00000E-002	1.09022E-003	7	...........	-327.66
	796	0.1594	-5.01875E-005	2.81855E-005	0.00000E+000	-1.49012E-008	1.11522E-003	7	...........	-327.66
	797	0.1596	9.99981E-003	2.83908E-005	0.00000E+000	9.99999E-003	1.04022E-003	7	...........	-327.66
	798	0.1598	1.99373E-002	2.85958E-005	0.00000E+000	2.00000E-002	9.40224E-004	7	...........	-327.66
	799	0.16	2.98873E-002	2.87896E-005	0.00000E+000	3.00000E-002	1.14022E-003	7	...........	-327.66
	800	0.1602	3.98623E-002	2.89784E-005	0.00000E+000	4.00000E-002	1.29022E-003	7	...........	-327.66
	801	0.1604	5.00623E-002	2.91514E-005	0.00000E+000	5.00000E-002	1.16522E-003	7	...........	-327.66
	802	0.1606	6.00123E-002	2.93189E-005	0.00000E+000	6.00000E-002	1.06522E-003	7	...........	-327.66
	803	0.1608	6.99873E-002	2.94734E-005	0.00000E+000	7.00000E-002	1.04022E-003	7	...........	-327.66
	804	0.161	7.99498E-002	2.96184E-005	0.00000E+000	8.00000E-002	1.04022E-003	7	...........	-327.66
	805	0.1612	9.00373E-002	2.97532E-005	0.00000E+000	9.00000E-002	9.65224E-004	7	...........	-327.66
	806	0.1614	9.99373E-002	2.98797E-005	0.00000E+000	1.00000E-001	1.14022E-003	7	...........	-327.66
	807	0.1616	1.09962E-001	2.99952E-005	0.00000E+000	1.10000E-001	1.19022E-003	7	...........	-327.66
	808	0.1618	1.19962E-001	3.01015E-005	0.00000E+000	1.20000E-001	1.09022E-003	7	...........	-327.66
	809	0.162	1.29987E-001	3.01955E-005	0.00000E+000	1.30000E-001	1.19022E-003	7	...........	-327.66
	810	0.1622	1.40050E-001	3.02800E-005	0.00000E+000	1.40000E-001	1.19022E-003	7	...........	-327.66
	811	0.1624	1.50137E-001	3.03538E-005	0.00000E+000	1.50000E-001	1.24022E-003	7	...........	-327.66
	812	0.1626	1.60000E-001	3.04210E-005	0.00000E+000	1.60000E-001	1.19022E-003	7	...........	-327.66
	813	0.1628	1.70000E-001	3.04761E-005	0.00000E+000	1.70000E-001	1.29022E-003	7	...........	-327.66
	814	0.163	1.79937E-001	3.05268E-005	0.00000E+000	1.80000E-001	1.14022E-003	7	...........	-327.66
	815	0.1632	1.89937E-001	3.05633E-005	0.00000E+000	1.90000E-001	1.11522E-003	7	...........	-327.66
	816	0.1634	1.99937E-001	3.05903E-005	0.00000E+000	2.00000E-001	1.09022E-003	7	...........	-327.66
	817	0.1636	2.09975E-001	3.06156E-005	0.00000E+000	2.10000E-001	1.11522E-003	7	...........	-327.66
	818	0.1638	2.19987E-001	3.06283E-005	0.00000E+000	2.20000E-001	1.21522E-003	7	...........	-327.66
	819	0.164	2.29987E-001	3.06386E-005	0.00000E+000	2.30000E-001	1.19022E-003	7	...........	-327.66
	820	0.1642	2.39962E-001	3.06408E-005	0.00000E+000	2.40000E-001	1.01522E-003	7	...........	-327.66
	821	0.1644	2.50025E-001	3.06356E-005	0.00000E+000	2.50000E-001	1.14022E-003	7	...........	-327.66
	822	0.1646	2.59937E-001	3.06318E-005	0.00000E+000	2.60000E-001	1.14022E-003	7	...........	-327.66
	823	0.1648	2.70150E-001	3.06223E-005	0.00000E+000	2.70000E-001	1.19022E-003	7	...........	-327.66
	824	0.165	2.79937E-001	3.06063E-005	0.00000E+000	2.80000E-001	1.04022E-003	7	...........	-327.66
	825	0.1652	2.89962E-001	3.05878E-005	0.00000E+000	2.90000E-001	1.04022E-003	7	...........	-327.66
	826	0.1654	2.99937E-001	3.05663E-005	0.00000E+000	3.00000E-001	1.04022E-003	7	...........	-327.66
	827	0.1656	3.09962E-001	3.05398E-005	0.00000E+000	3.10000E-001	1.14022E-003	7	...........	-327.66
	828	0.1658	3.19987E-001	3.05141E-005	0.00000E+000	3.20000E-001	1.04022E-003	7	...........	-327.66
	829	0.166	3.30037E-001	3.04838E-005	0.00000E+000	3.30000E-001	1.01522E-003	7	...........	-327.66
	830	0.1662	3.39987E-001	3.04511E-005	0.00000E+000	3.40000E-001	1.29022E-003	7	...........	-327.66
	831	0.1664	3.49975E-001	3.04153E-005	0.00000E+000	3.50000E-001	1.14022E-003	7	...........	-327.66
	832	0.1666	3.59912E-001	3.03810E-005	0.00000E+000	3.60000E-001	1.11522E-003	7	...........	-327.66
	833	0.1668	3.69937E-001	3.03463E-005	0.00000E+000	3.70000E-001	1.19022E-003	7	...........	-327.66
	834	0.167	3.79937E-001	3.03075E-005	0.00000E+000	3.80000E-001	1.09022E-003	7	...........	-327.66
	835	0.1672	3.89912E-001	3.02695E-005	0.00000E+000	3.90000E-001	1.16522E-003	7	...........	-327.66
	836	0.1674	3.99950E-001	3.02295E-005	0.00000E+000	4.00000E-001	1.14022E-003	7	...........	-327.66
	837	0.1676	4.09875E-001	3.01913E-005	0.00000E+000	4.10000E-001	1.06522E-003	7	...........	-327.66
	838	0.1678	4.19962E-001	3.01513E-005	0.00000E+000	4.20000E-001	1.11522E-003	7	...........	-327.66
	839	0.168	4.29887E-001	3.01115E-005	0.00000E+000	4.30000E-001	1.04022E-003	7	...........	-327.66
	840	0.1682	4.39887E-001	3.00728E-005	0.00000E+000	4.40000E-001	1.14022E-003	7	...........	-327.66
	841	0.1684	4.50087E-001	3.00367E-005	0.00000E+000	4.50000E-001	1.11522E-003	7	...........	-327.66
	842	0.1686	4.59925E-001	2.99975E-005	0.00000E+000	4.60000E-001	1.14022E-003	7	...........	-327.66
	843	0.1688	4.69950E-001	2.99647E-005	0.00000E+000	4.70000E-001	1.24022E-003	7	...........	-327.66
	844	0.169	4.79912E-001	2.99307E-005	0.00000E+000	4.80000E-001	1.21522E-003	7	...........	-327.66
	845	0.1692	4.89950E-001	2.99010E-005	0.00000E+000	4.90000E-001	1.14022E-003	7	...........	-327.66
	846	0.1694	4.99962E-001	2.98695E-005	0.00000E+000	5.00000E-001	1.21522E-003	7	...........	-327.66
	847	0.1696	5.09912E-001	2.98427E-005	0.00000E+000	5.10000E-001	1.14022E-003	7	...........	-327.66
	848	0.1698	5.19937E-001	2.98185E-005	0.00000E+000	5.20000E-001	1.09022E-003	7	...........	-327.66
	849	0.17	5.29962E-001	2.97987E-005	0.00000E+000	5.30000E-001	1.19022E-003	7	...........	-327.66
	850	0.1702	5.39937E-001	2.97800E-005	0.00000E+000	5.40000E-001	9.90224E-004	7	...........	-327.66
	851	0.1704	5.49937E-001	2.97670E-005	0.00000E+000	5.50000E-001	1.16522E-003	7	...........	-327.66
	852	0.1706	5.59887E-001	2.97527E-005	0.00000E+000	5.60000E-001	1.14022E-003	7	...........	-327.66
	853	0.1708	5.69900E-001	2.97470E-005	0.00000E+000	5.70000E-001	1.16522E-003	7	...........	-327.66
	854	0.171	5.79912E-001	2.97415E-005	0.00000E+000	5.80000E-001	1.19022E-003	7	...........	-327.66
	855	0.1712	5.89900E-001	2.97397E-005	0.00000E+000	5.90000E-001	1.14022E-003	7	...........	-327.66
	856	0.1714	5.99950E-001	2.97425E-005	0.00000E+000	6.00000E-001	1.04022E-003	7	...........	-327.66
CURVE4	TABLE
	Pt	T	Vf	Im	Vu	Sig	Ach	IERange	Over	Temp
	#	s	V vs. Ref.	A	V	V	V	#	bits	deg C
	857	0.1716	5.89987E-001	2.72291E-005	0.00000E+000	5.90000E-001	1.04022E-003	7	...........	-327.66
	858	0.1718	5.79987E-001	2.48768E-005	0.00000E+000	5.80000E-001	9.90224E-004	7	...........	-327.66
	859	0.172	5.69950E-001	2.29220E-005	0.00000E+000	5.70000E-001	1.06522E-003	7	...........	-327.66
	860	0.1722	5.59937E-001	2.12275E-005	0.00000E+000	5.60000E-001	9.40224E-004	7	...........	-327.66
	861	0.1724	5.49962E-001	1.97163E-005	0.00000E+000	5.50000E-001	1.11522E-003	7	...........	-327.66
	862	0.1726	5.39937E-001	1.83424E-005	0.00000E+000	5.40000E-001	1.21522E-003	7	...........	-327.66
	863	0.1728	5.29937E-001	1.70792E-005	0.00000E+000	5.30000E-001	1.14022E-003	7	...........	-327.66
	864	0.173	5.19950E-001	1.58986E-005	0.00000E+000	5.20000E-001	1.09022E-003	7	...........	-327.66
	865	0.1732	5.09937E-001	1.47937E-005	0.00000E+000	5.10000E-001	9.15224E-004	7	...........	-327.66
	866	0.1734	5.00025E-001	1.37508E-005	0.00000E+000	5.00000E-001	1.14022E-003	7	...........	-327.66
	867	0.1736	4.89937E-001	1.27589E-005	0.00000E+000	4.90000E-001	1.24022E-003	7	...........	-327.66
	868	0.1738	4.79912E-001	1.18070E-005	0.00000E+000	4.80000E-001	1.19022E-003	7	...........	-327.66
	869	0.174	4.69925E-001	1.08994E-005	0.00000E+000	4.70000E-001	1.11522E-003	7	...........	-327.66
	870	0.1742	4.59962E-001	1.00283E-005	0.00000E+000	4.60000E-001	1.06522E-003	7	...........	-327.66
	871	0.1744	4.50137E-001	9.18866E-006	0.00000E+000	4.50000E-001	1.19022E-003	7	...........	-327.66
	872	0.1746	4.39987E-001	8.37805E-006	0.00000E+000	4.40000E-001	1.04022E-003	7	...........	-327.66
	873	0.1748	4.30037E-001	7.59469E-006	0.00000E+000	4.30000E-001	1.09022E-003	7	...........	-327.66
	874	0.175	4.20050E-001	6.83234E-006	0.00000E+000	4.20000E-001	1.06522E-003	7	...........	-327.66
	875	0.1752	4.09950E-001	6.09924E-006	0.00000E+000	4.10000E-001	1.09022E-003	7	...........	-327.66
	876	0.1754	4.00050E-001	5.38589E-006	0.00000E+000	4.00000E-001	1.14022E-003	7	...........	-327.66
	877	0.1756	3.90000E-001	4.69379E-006	0.00000E+000	3.90000E-001	1.11522E-003	7	...........	-327.66
	878	0.1758	3.79937E-001	4.01170E-006	0.00000E+000	3.80000E-001	1.06522E-003	7	...........	-327.66
	879	0.176	3.70112E-001	3.35636E-006	0.00000E+000	3.70000E-001	1.16522E-003	7	...........	-327.66
	880	0.1762	3.59987E-001	2.71177E-006	0.00000E+000	3.60000E-001	9.65224E-004	7	...........	-327.66
	881	0.1764	3.50087E-001	2.08644E-006	0.00000E+000	3.50000E-001	1.06522E-003	7	...........	-327.66
	882	0.1766	3.40012E-001	1.47711E-006	0.00000E+000	3.40000E-001	1.11522E-003	7	...........	-327.66
	883	0.1768	3.29987E-001	8.77524E-007	0.00000E+000	3.30000E-001	1.14022E-003	7	...........	-327.66
	884	0.177	3.20062E-001	2.88943E-007	0.00000E+000	3.20000E-001	1.11522E-003	7	...........	-327.66
	885	0.1772	3.10200E-001	-2.85885E-007	0.00000E+000	3.10000E-001	1.14022E-003	7	...........	-327.66
	886	0.1774	2.99975E-001	-8.46711E-007	0.00000E+000	3.00000E-001	1.14022E-003	7	...........	-327.66
	887	0.1776	2.90125E-001	-1.39654E-006	0.00000E+000	2.90000E-001	1.16522E-003	7	...........	-327.66
	888	0.1778	2.80062E-001	-1.93236E-006	0.00000E+000	2.80000E-001	1.16522E-003	7	...........	-327.66
	889	0.178	2.70175E-001	-2.46718E-006	0.00000E+000	2.70000E-001	1.09022E-003	7	...........	-327.66
	890	0.1782	2.59962E-001	-2.98625E-006	0.00000E+000	2.60000E-001	1.06522E-003	7	...........	-327.66
	891	0.1784	2.50175E-001	-3.49407E-006	0.00000E+000	2.50000E-001	1.19022E-003	7	...........	-327.66
	892	0.1786	2.40100E-001	-3.99664E-006	0.00000E+000	2.40000E-001	1.09022E-003	7	...........	-327.66
	893	0.1788	2.30000E-001	-4.49246E-006	0.00000E+000	2.30000E-001	1.11522E-003	7	...........	-327.66
	894	0.179	2.19950E-001	-4.98152E-006	0.00000E+000	2.20000E-001	9.40224E-004	7	...........	-327.66
	895	0.1792	2.10062E-001	-5.46059E-006	0.00000E+000	2.10000E-001	1.11522E-003	7	...........	-327.66
	896	0.1794	2.00012E-001	-5.92565E-006	0.00000E+000	2.00000E-001	1.16522E-003	7	...........	-327.66
	897	0.1796	1.90150E-001	-6.39197E-006	0.00000E+000	1.90000E-001	1.19022E-003	7	...........	-327.66
	898	0.1798	1.79962E-001	-6.84953E-006	0.00000E+000	1.80000E-001	9.90224E-004	7	...........	-327.66
	899	0.18	1.70237E-001	-7.30134E-006	0.00000E+000	1.70000E-001	1.09022E-003	7	...........	-327.66
	900	0.1802	1.60125E-001	-7.74590E-006	0.00000E+000	1.60000E-001	9.90224E-004	7	...........	-327.66
