EXPLAIN
TAG	CV
TITLE	LABEL	CV50000	Test Identifier
DATE	LABEL	5/9/2025	Date
TIME	LABEL	15:09:18	Time
NOTES	NOTES	1	Notes...
	
PSTAT	PSTAT	REF600P-43058	Potentiostat
VINIT	POTEN	0.00000E+000	T	Initial E (V)
VLIMIT1	POTEN	-9.00000E-001	F	Scan Limit 1 (V)
VLIMIT2	POTEN	6.00000E-001	F	Scan Limit 2 (V)
VFINAL	POTEN	0.00000E+000	T	Final E (V)
SCANRATE	QUANT	4.99999E+004	Scan Rate (mV/s)
STEPSIZE	QUANT	1.00000E+001	Step Size (mV)
CYCLES	IQUANT	3	Cycles (#)
IMODE	SELECTOR	1	I/E Range Mode
IRANGE	QUANT	1.00000E-002	Max Current (mA)
AREA	QUANT	1.00000E+000	Sample Area (cm^2)
EQDELAY	QUANT	5.00000E+000	Equil. Time (s)
IRCOMP	SELECTOR	0	IRComp
PFCOR	QUANT	5.00000E+001	PF Corr. (ohm)
SAMPLINGMODE	SELECTOR	2	Sampling Mode
EOC	QUANT	0.1578694	Open Circuit (V)
ELECTRODETYPE	SELECTOR	0	Electrode Type
STRIPPING	TOGGLE	F	Used for Stripping
SEQUENCER	TOGGLE	TRUE	Run as Sequence
PSTATMODEL	IQUANT	7	Pstat Model
PSTATSECTION	LABEL	REF600P-43058	Pstat Section
PSTATSERIALNO	LABEL	43058	Pstat Serial Number
CTRLMODE	IQUANT	1	Control Mode
ELECTROMETER	IQUANT	0	RE=0 or CS=1
IESTAB	IQUANT	2	I/E Stability
CASPEED	IQUANT	4	Control Amp Speed
CONVENTION	IQUANT	1	Current Convention
ICHRANGE	IQUANT	2	Ich Range
ICHRANGEMODE	TOGGLE	F	Ich Auto Range
ICHOFFSETENABLE	TOGGLE	F	Ich Offset Enable
ICHOFFSET	QUANT	0	Ich Offset (V)
ICHFILTER	IQUANT	1	Ich Filter
VCHRANGE	IQUANT	2	Vch Range
VCHRANGEMODE	TOGGLE	F	Vch Auto Range
VCHOFFSETENABLE	TOGGLE	F	Vch Offset Enable
VCHOFFSET	QUANT	0	Vch Offset (V)
VCHFILTER	IQUANT	1	Vch Filter
ACHRANGE	IQUANT	2	Ach Range
ACHOFFSETENABLE	TOGGLE	F	Ach Offset Enable
ACHOFFSET	QUANT	0	Ach Offset (V)
ACHFILTER	IQUANT	1	Ach Filter
IERANGELOWERLIMIT	IQUANT	1	I/E Range Lower Limit
IERANGEMODE	TOGGLE	F	I/E AutoRange
IERANGE	IQUANT	7	I/E Range
POSFEEDENABLE	TOGGLE	F	Positive Feedback IR Comp
POSFEEDRESISTANCE	QUANT	0	Positive Feedback Resistance (ohm)
ACHSELECT	IQUANT	4	Ach Select
SENSECABLEID	IQUANT	7	Sense Cable ID
PWRCABLEID	IQUANT	7	Power Cable ID
DCCALDATE	LABEL	5/8/2025	DC Calibration Date
ACCALDATE	LABEL	5/8/2025	AC Calibration Date
THERMOSELECT	IQUANT	1	Thermo Select
FRAMEWORKVERSION	LABEL	7.10.4	Framework Version
INSTRUMENTVERSION	LABEL	5.01	Instrument Version
COMMVERSION	LABEL	5.10	Communications Version
CPUPLDVERSION	LABEL	6.00	CPU PLD Version
CTRLPLDVERSION	LABEL	3.21	CTRL PLD Version
PSTATPLDVERSION	LABEL	0.00	PSTAT PLD Version
CURVE1	TABLE
	Pt	T	Vf	Im	Vu	Sig	Ach	IERange	Over	Temp
	#	s	V vs. Ref.	A	V	V	V	#	bits	deg C
	0	0.0002	1.57912E-001	1.24056E-008	0.00000E+000	1.57850E-001	1.06522E-003	7	...........	-327.66
	1	0.0004	1.47950E-001	-1.30127E-006	0.00000E+000	1.47850E-001	9.65224E-004	7	...........	-327.66
	2	0.0006	1.38037E-001	-2.51544E-006	0.00000E+000	1.37850E-001	9.90224E-004	7	...........	-327.66
	3	0.0008	1.27912E-001	-3.52683E-006	0.00000E+000	1.27850E-001	1.16522E-003	7	...........	-327.66
	4	0.001	1.18000E-001	-4.40820E-006	0.00000E+000	1.17850E-001	9.15224E-004	7	...........	-327.66
	5	0.0012	1.07950E-001	-5.19155E-006	0.00000E+000	1.07850E-001	1.19022E-003	7	...........	-327.66
	6	0.0014	9.79873E-002	-5.90515E-006	0.00000E+000	9.78500E-002	1.14022E-003	7	...........	-327.66
	7	0.0016	8.80498E-002	-6.56549E-006	0.00000E+000	8.78500E-002	1.16522E-003	7	...........	-327.66
	8	0.0018	7.79873E-002	-7.18658E-006	0.00000E+000	7.78500E-002	1.19022E-003	7	...........	-327.66
	9	0.002	6.79373E-002	-7.76965E-006	0.00000E+000	6.78500E-002	1.09022E-003	7	...........	-327.66
	10	0.0022	5.79748E-002	-8.32498E-006	0.00000E+000	5.78500E-002	1.11522E-003	7	...........	-327.66
	11	0.0024	4.79373E-002	-8.85555E-006	0.00000E+000	4.78500E-002	1.06522E-003	7	...........	-327.66
	12	0.0026	3.79748E-002	-9.36487E-006	0.00000E+000	3.78500E-002	1.06522E-003	7	...........	-327.66
	13	0.0028	2.79373E-002	-9.86044E-006	0.00000E+000	2.78500E-002	1.01522E-003	7	...........	-327.66
	14	0.003	1.80373E-002	-1.03410E-005	0.00000E+000	1.78500E-002	1.24022E-003	7	...........	-327.66
	15	0.0032	8.01231E-003	-1.08078E-005	0.00000E+000	7.84999E-003	1.24022E-003	7	...........	-327.66
	16	0.0034	-1.97519E-003	-1.12656E-005	0.00000E+000	-2.15001E-003	1.29022E-003	7	...........	-327.66
	17	0.0036	-1.20002E-002	-1.17069E-005	0.00000E+000	-1.21500E-002	1.14022E-003	7	...........	-327.66
	18	0.0038	-2.20377E-002	-1.21450E-005	0.00000E+000	-2.21500E-002	1.04022E-003	7	...........	-327.66
	19	0.004	-3.20502E-002	-1.25796E-005	0.00000E+000	-3.21500E-002	1.04022E-003	7	...........	-327.66
	20	0.0042	-4.19877E-002	-1.30011E-005	0.00000E+000	-4.21500E-002	9.65224E-004	7	...........	-327.66
	21	0.0044	-5.20002E-002	-1.34209E-005	0.00000E+000	-5.21500E-002	1.01522E-003	7	...........	-327.66
	22	0.0046	-6.17877E-002	-1.38322E-005	0.00000E+000	-6.21500E-002	1.19022E-003	7	...........	-327.66
	23	0.0048	-7.21127E-002	-1.42405E-005	0.00000E+000	-7.21500E-002	1.04022E-003	7	...........	-327.66
	24	0.005	-8.19877E-002	-1.46461E-005	0.00000E+000	-8.21500E-002	1.14022E-003	7	...........	-327.66
	25	0.0052	-9.19502E-002	-1.50436E-005	0.00000E+000	-9.21500E-002	1.24022E-003	7	...........	-327.66
	26	0.0054	-1.02038E-001	-1.54410E-005	0.00000E+000	-1.02150E-001	9.15224E-004	7	...........	-327.66
	27	0.0056	-1.12013E-001	-1.58308E-005	0.00000E+000	-1.12150E-001	1.04022E-003	7	...........	-327.66
	28	0.0058	-1.22000E-001	-1.62251E-005	0.00000E+000	-1.22150E-001	1.16522E-003	7	...........	-327.66
	29	0.006	-1.32000E-001	-1.66129E-005	0.00000E+000	-1.32150E-001	1.14022E-003	7	...........	-327.66
	30	0.0062	-1.42025E-001	-1.70024E-005	0.00000E+000	-1.42150E-001	1.06522E-003	7	...........	-327.66
	31	0.0064	-1.52050E-001	-1.73850E-005	0.00000E+000	-1.52150E-001	1.06522E-003	7	...........	-327.66
	32	0.0066	-1.61963E-001	-1.77650E-005	0.00000E+000	-1.62150E-001	1.11522E-003	7	...........	-327.66
	33	0.0068	-1.71963E-001	-1.81393E-005	0.00000E+000	-1.72150E-001	1.06522E-003	7	...........	-327.66
	34	0.007	-1.81900E-001	-1.85246E-005	0.00000E+000	-1.82150E-001	1.14022E-003	7	...........	-327.66
	35	0.0072	-1.92063E-001	-1.89009E-005	0.00000E+000	-1.92150E-001	1.09022E-003	7	...........	-327.66
	36	0.0074	-2.01988E-001	-1.92775E-005	0.00000E+000	-2.02150E-001	1.21522E-003	7	...........	-327.66
	37	0.0076	-2.12063E-001	-1.96523E-005	0.00000E+000	-2.12150E-001	1.19022E-003	7	...........	-327.66
	38	0.0078	-2.21950E-001	-2.00283E-005	0.00000E+000	-2.22150E-001	1.21522E-003	7	...........	-327.66
	39	0.008	-2.31988E-001	-2.03989E-005	0.00000E+000	-2.32150E-001	1.14022E-003	7	...........	-327.66
	40	0.0082	-2.41663E-001	-2.07677E-005	0.00000E+000	-2.42150E-001	1.24022E-003	7	...........	-327.66
	41	0.0084	-2.52025E-001	-2.11402E-005	0.00000E+000	-2.52150E-001	1.16522E-003	7	...........	-327.66
	42	0.0086	-2.61900E-001	-2.15055E-005	0.00000E+000	-2.62150E-001	1.19022E-003	7	...........	-327.66
	43	0.0088	-2.71863E-001	-2.18728E-005	0.00000E+000	-2.72150E-001	1.06522E-003	7	...........	-327.66
	44	0.009	-2.81838E-001	-2.22396E-005	0.00000E+000	-2.82150E-001	1.24022E-003	7	...........	-327.66
	45	0.0092	-2.91975E-001	-2.26042E-005	0.00000E+000	-2.92150E-001	1.11522E-003	7	...........	-327.66
	46	0.0094	-3.01850E-001	-2.29645E-005	0.00000E+000	-3.02150E-001	1.19022E-003	7	...........	-327.66
	47	0.0096	-3.12063E-001	-2.33275E-005	0.00000E+000	-3.12150E-001	1.11522E-003	7	...........	-327.66
	48	0.0098	-3.21900E-001	-2.36856E-005	0.00000E+000	-3.22150E-001	1.21522E-003	7	...........	-327.66
	49	0.01	-3.32013E-001	-2.40421E-005	0.00000E+000	-3.32150E-001	1.21522E-003	7	...........	-327.66
	50	0.0102	-3.41938E-001	-2.43989E-005	0.00000E+000	-3.42150E-001	1.14022E-003	7	...........	-327.66
	51	0.0104	-3.52000E-001	-2.47600E-005	0.00000E+000	-3.52150E-001	1.16522E-003	7	...........	-327.66
	52	0.0106	-3.61850E-001	-2.51120E-005	0.00000E+000	-3.62150E-001	1.06522E-003	7	...........	-327.66
	53	0.0108	-3.71838E-001	-2.54651E-005	0.00000E+000	-3.72150E-001	9.65224E-004	7	...........	-327.66
	54	0.011	-3.81925E-001	-2.58156E-005	0.00000E+000	-3.82150E-001	1.09022E-003	7	...........	-327.66
	55	0.0112	-3.91938E-001	-2.61649E-005	0.00000E+000	-3.92150E-001	9.40224E-004	7	...........	-327.66
	56	0.0114	-4.01900E-001	-2.65082E-005	0.00000E+000	-4.02150E-001	1.21522E-003	7	...........	-327.66
	57	0.0116	-4.11988E-001	-2.68548E-005	0.00000E+000	-4.12150E-001	1.09022E-003	7	...........	-327.66
	58	0.0118	-4.21713E-001	-2.72008E-005	0.00000E+000	-4.22150E-001	1.19022E-003	7	...........	-327.66
	59	0.012	-4.31963E-001	-2.75436E-005	0.00000E+000	-4.32150E-001	1.06522E-003	7	...........	-327.66
	60	0.0122	-4.41775E-001	-2.78809E-005	0.00000E+000	-4.42150E-001	1.29022E-003	7	...........	-327.66
	61	0.0124	-4.51875E-001	-2.82204E-005	0.00000E+000	-4.52150E-001	1.21522E-003	7	...........	-327.66
	62	0.0126	-4.61875E-001	-2.85547E-005	0.00000E+000	-4.62150E-001	1.06522E-003	7	...........	-327.66
	63	0.0128	-4.71925E-001	-2.88913E-005	0.00000E+000	-4.72150E-001	1.16522E-003	7	...........	-327.66
	64	0.013	-4.81825E-001	-2.92241E-005	0.00000E+000	-4.82150E-001	1.16522E-003	7	...........	-327.66
	65	0.0132	-4.91925E-001	-2.95511E-005	0.00000E+000	-4.92150E-001	1.19022E-003	7	...........	-327.66
	66	0.0134	-5.01875E-001	-2.98804E-005	0.00000E+000	-5.02150E-001	1.19022E-003	7	...........	-327.66
	67	0.0136	-5.11950E-001	-3.02010E-005	0.00000E+000	-5.12150E-001	1.11522E-003	7	...........	-327.66
	68	0.0138	-5.21713E-001	-3.05255E-005	0.00000E+000	-5.22150E-001	1.29022E-003	7	...........	-327.66
	69	0.014	-5.31988E-001	-3.08443E-005	0.00000E+000	-5.32150E-001	1.06522E-003	7	...........	-327.66
	70	0.0142	-5.41900E-001	-3.11581E-005	0.00000E+000	-5.42150E-001	1.01522E-003	7	...........	-327.66
	71	0.0144	-5.51875E-001	-3.14696E-005	0.00000E+000	-5.52150E-001	1.16522E-003	7	...........	-327.66
	72	0.0146	-5.61913E-001	-3.17789E-005	0.00000E+000	-5.62150E-001	1.04022E-003	7	...........	-327.66
	73	0.0148	-5.71963E-001	-3.20862E-005	0.00000E+000	-5.72150E-001	1.19022E-003	7	...........	-327.66
	74	0.015	-5.81875E-001	-3.23873E-005	0.00000E+000	-5.82150E-001	1.06522E-003	7	...........	-327.66
	75	0.0152	-5.91813E-001	-3.26850E-005	0.00000E+000	-5.92150E-001	1.14022E-003	7	...........	-327.66
	76	0.0154	-6.01750E-001	-3.29828E-005	0.00000E+000	-6.02150E-001	1.19022E-003	7	...........	-327.66
	77	0.0156	-6.11850E-001	-3.32741E-005	0.00000E+000	-6.12150E-001	1.14022E-003	7	...........	-327.66
	78	0.0158	-6.21700E-001	-3.35642E-005	0.00000E+000	-6.22150E-001	9.90224E-004	7	...........	-327.66
	79	0.016	-6.31738E-001	-3.38465E-005	0.00000E+000	-6.32150E-001	1.16522E-003	7	...........	-327.66
	80	0.0162	-6.41900E-001	-3.41260E-005	0.00000E+000	-6.42150E-001	1.19022E-003	7	...........	-327.66
	81	0.0164	-6.51788E-001	-3.43973E-005	0.00000E+000	-6.52150E-001	1.14022E-003	7	...........	-327.66
	82	0.0166	-6.61763E-001	-3.46656E-005	0.00000E+000	-6.62150E-001	9.40224E-004	7	...........	-327.66
	83	0.0168	-6.71900E-001	-3.49291E-005	0.00000E+000	-6.72150E-001	1.11522E-003	7	...........	-327.66
	84	0.017	-6.81713E-001	-3.51879E-005	0.00000E+000	-6.82150E-001	1.14022E-003	7	...........	-327.66
	85	0.0172	-6.91763E-001	-3.54389E-005	0.00000E+000	-6.92150E-001	1.11522E-003	7	...........	-327.66
	86	0.0174	-7.01625E-001	-3.56835E-005	0.00000E+000	-7.02150E-001	9.65224E-004	7	...........	-327.66
	87	0.0176	-7.11738E-001	-3.59250E-005	0.00000E+000	-7.12150E-001	1.19022E-003	7	...........	-327.66
	88	0.0178	-7.21850E-001	-3.61578E-005	0.00000E+000	-7.22150E-001	1.14022E-003	7	...........	-327.66
	89	0.018	-7.31750E-001	-3.63858E-005	0.00000E+000	-7.32150E-001	1.16522E-003	7	...........	-327.66
	90	0.0182	-7.41775E-001	-3.65991E-005	0.00000E+000	-7.42150E-001	1.01522E-003	7	...........	-327.66
	91	0.0184	-7.51825E-001	-3.68104E-005	0.00000E+000	-7.52150E-001	1.04022E-003	7	...........	-327.66
	92	0.0186	-7.61800E-001	-3.70101E-005	0.00000E+000	-7.62150E-001	1.16522E-003	7	...........	-327.66
	93	0.0188	-7.71838E-001	-3.72042E-005	0.00000E+000	-7.72150E-001	1.09022E-003	7	...........	-327.66
	94	0.019	-7.81713E-001	-3.73864E-005	0.00000E+000	-7.82150E-001	1.14022E-003	7	...........	-327.66
	95	0.0192	-7.91863E-001	-3.75570E-005	0.00000E+000	-7.92150E-001	1.14022E-003	7	...........	-327.66
	96	0.0194	-8.01775E-001	-3.77160E-005	0.00000E+000	-8.02150E-001	1.21522E-003	7	...........	-327.66
	97	0.0196	-8.11875E-001	-3.78605E-005	0.00000E+000	-8.12150E-001	1.21522E-003	7	...........	-327.66
	98	0.0198	-8.21700E-001	-3.79978E-005	0.00000E+000	-8.22150E-001	1.14022E-003	7	...........	-327.66
	99	0.02	-8.31888E-001	-3.81148E-005	0.00000E+000	-8.32150E-001	1.21522E-003	7	...........	-327.66
	100	0.0202	-8.41800E-001	-3.82213E-005	0.00000E+000	-8.42150E-001	1.29022E-003	7	...........	-327.66
	101	0.0204	-8.51788E-001	-3.83073E-005	0.00000E+000	-8.52150E-001	1.14022E-003	7	...........	-327.66
	102	0.0206	-8.61738E-001	-3.83753E-005	0.00000E+000	-8.62150E-001	1.21522E-003	7	...........	-327.66
	103	0.0208	-8.71863E-001	-3.84261E-005	0.00000E+000	-8.72150E-001	1.14022E-003	7	...........	-327.66
	104	0.021	-8.81713E-001	-3.84578E-005	0.00000E+000	-8.82150E-001	1.24022E-003	7	...........	-327.66
	105	0.0212	-8.91875E-001	-3.84651E-005	0.00000E+000	-8.92150E-001	1.14022E-003	7	...........	-327.66
	106	0.0214	-9.01750E-001	-3.84486E-005	0.00000E+000	-9.02150E-001	1.14022E-003	7	...........	-327.66
	107	0.0216	-8.92025E-001	-3.60743E-005	0.00000E+000	-8.92150E-001	1.24022E-003	7	...........	-327.66
	108	0.0218	-8.81688E-001	-3.37039E-005	0.00000E+000	-8.82150E-001	1.16522E-003	7	...........	-327.66
	109	0.022	-8.71900E-001	-3.16304E-005	0.00000E+000	-8.72150E-001	9.90224E-004	7	...........	-327.66
	110	0.0222	-8.61838E-001	-2.97589E-005	0.00000E+000	-8.62150E-001	1.16522E-003	7	...........	-327.66
	111	0.0224	-8.51863E-001	-2.80347E-005	0.00000E+000	-8.52150E-001	1.01522E-003	7	...........	-327.66
	112	0.0226	-8.41963E-001	-2.64222E-005	0.00000E+000	-8.42150E-001	1.19022E-003	7	...........	-327.66
	113	0.0228	-8.31950E-001	-2.48962E-005	0.00000E+000	-8.32150E-001	1.11522E-003	7	...........	-327.66
	114	0.023	-8.21775E-001	-2.34400E-005	0.00000E+000	-8.22150E-001	1.21522E-003	7	...........	-327.66
	115	0.0232	-8.11975E-001	-2.20456E-005	0.00000E+000	-8.12150E-001	1.06522E-003	7	...........	-327.66
	116	0.0234	-8.01863E-001	-2.07059E-005	0.00000E+000	-8.02150E-001	1.06522E-003	7	...........	-327.66
	117	0.0236	-7.91900E-001	-1.94085E-005	0.00000E+000	-7.92150E-001	1.14022E-003	7	...........	-327.66
	118	0.0238	-7.81863E-001	-1.81528E-005	0.00000E+000	-7.82150E-001	1.16522E-003	7	...........	-327.66
	119	0.024	-7.71950E-001	-1.69422E-005	0.00000E+000	-7.72150E-001	1.09022E-003	7	...........	-327.66
	120	0.0242	-7.61950E-001	-1.57612E-005	0.00000E+000	-7.62150E-001	1.14022E-003	7	...........	-327.66
	121	0.0244	-7.52000E-001	-1.46141E-005	0.00000E+000	-7.52150E-001	1.19022E-003	7	...........	-327.66
	122	0.0246	-7.41825E-001	-1.35017E-005	0.00000E+000	-7.42150E-001	1.11522E-003	7	...........	-327.66
	123	0.0248	-7.31850E-001	-1.24145E-005	0.00000E+000	-7.32150E-001	1.24022E-003	7	...........	-327.66
	124	0.025	-7.21863E-001	-1.13561E-005	0.00000E+000	-7.22150E-001	1.24022E-003	7	...........	-327.66
	125	0.0252	-7.11925E-001	-1.03235E-005	0.00000E+000	-7.12150E-001	1.14022E-003	7	...........	-327.66
	126	0.0254	-7.01713E-001	-9.31612E-006	0.00000E+000	-7.02150E-001	1.06522E-003	7	...........	-327.66
	127	0.0256	-6.91925E-001	-8.33648E-006	0.00000E+000	-6.92150E-001	1.14022E-003	7	...........	-327.66
	128	0.0258	-6.81888E-001	-7.37735E-006	0.00000E+000	-6.82150E-001	1.24022E-003	7	...........	-327.66
	129	0.026	-6.71950E-001	-6.44197E-006	0.00000E+000	-6.72150E-001	1.21522E-003	7	...........	-327.66
	130	0.0262	-6.61975E-001	-5.52410E-006	0.00000E+000	-6.62150E-001	1.24022E-003	7	...........	-327.66
	131	0.0264	-6.51913E-001	-4.62998E-006	0.00000E+000	-6.52150E-001	1.29022E-003	7	...........	-327.66
	132	0.0266	-6.41875E-001	-3.75361E-006	0.00000E+000	-6.42150E-001	1.21522E-003	7	...........	-327.66
	133	0.0268	-6.32013E-001	-2.89799E-006	0.00000E+000	-6.32150E-001	1.11522E-003	7	...........	-327.66
	134	0.027	-6.21950E-001	-2.05888E-006	0.00000E+000	-6.22150E-001	1.24022E-003	7	...........	-327.66
	135	0.0272	-6.11975E-001	-1.23601E-006	0.00000E+000	-6.12150E-001	1.21522E-003	7	...........	-327.66
	136	0.0274	-6.01863E-001	-4.34405E-007	0.00000E+000	-6.02150E-001	1.16522E-003	7	...........	-327.66
	137	0.0276	-5.92088E-001	3.58953E-007	0.00000E+000	-5.92150E-001	1.19022E-003	7	...........	-327.66
	138	0.0278	-5.81975E-001	1.13431E-006	0.00000E+000	-5.82150E-001	1.16522E-003	7	...........	-327.66
	139	0.028	-5.72075E-001	1.89366E-006	0.00000E+000	-5.72150E-001	1.21522E-003	7	...........	-327.66
	140	0.0282	-5.62063E-001	2.64601E-006	0.00000E+000	-5.62150E-001	1.29022E-003	7	...........	-327.66
	141	0.0284	-5.52025E-001	3.38537E-006	0.00000E+000	-5.52150E-001	1.16522E-003	7	...........	-327.66
	142	0.0286	-5.42088E-001	4.11246E-006	0.00000E+000	-5.42150E-001	1.19022E-003	7	...........	-327.66
	143	0.0288	-5.32063E-001	4.82531E-006	0.00000E+000	-5.32150E-001	1.11522E-003	7	...........	-327.66
	144	0.029	-5.22000E-001	5.53466E-006	0.00000E+000	-5.22150E-001	1.14022E-003	7	...........	-327.66
	145	0.0292	-5.12088E-001	6.23300E-006	0.00000E+000	-5.12150E-001	1.11522E-003	7	...........	-327.66
	146	0.0294	-5.01938E-001	6.92085E-006	0.00000E+000	-5.02150E-001	1.24022E-003	7	...........	-327.66
	147	0.0296	-4.92063E-001	7.60469E-006	0.00000E+000	-4.92150E-001	1.19022E-003	7	...........	-327.66
	148	0.0298	-4.82063E-001	8.27953E-006	0.00000E+000	-4.82150E-001	1.16522E-003	7	...........	-327.66
	149	0.03	-4.72138E-001	8.94537E-006	0.00000E+000	-4.72150E-001	1.04022E-003	7	...........	-327.66
	150	0.0302	-4.62188E-001	9.60496E-006	0.00000E+000	-4.62150E-001	1.09022E-003	7	...........	-327.66
	151	0.0304	-4.51963E-001	1.02598E-005	0.00000E+000	-4.52150E-001	1.21522E-003	7	...........	-327.66
	152	0.0306	-4.42075E-001	1.09061E-005	0.00000E+000	-4.42150E-001	9.90224E-004	7	...........	-327.66
	153	0.0308	-4.32113E-001	1.15517E-005	0.00000E+000	-4.32150E-001	1.11522E-003	7	...........	-327.66
	154	0.031	-4.21988E-001	1.21828E-005	0.00000E+000	-4.22150E-001	1.14022E-003	7	...........	-327.66
	155	0.0312	-4.12025E-001	1.28144E-005	0.00000E+000	-4.12150E-001	1.24022E-003	7	...........	-327.66
	156	0.0314	-4.02138E-001	1.34365E-005	0.00000E+000	-4.02150E-001	9.90224E-004	7	...........	-327.66
	157	0.0316	-3.92113E-001	1.40483E-005	0.00000E+000	-3.92150E-001	1.09022E-003	7	...........	-327.66
	158	0.0318	-3.82113E-001	1.46607E-005	0.00000E+000	-3.82150E-001	1.14022E-003	7	...........	-327.66
	159	0.032	-3.72025E-001	1.52572E-005	0.00000E+000	-3.72150E-001	1.06522E-003	7	...........	-327.66
	160	0.0322	-3.62038E-001	1.58476E-005	0.00000E+000	-3.62150E-001	1.04022E-003	7	...........	-327.66
	161	0.0324	-3.52188E-001	1.64331E-005	0.00000E+000	-3.52150E-001	1.09022E-003	7	...........	-327.66
	162	0.0326	-3.42225E-001	1.70080E-005	0.00000E+000	-3.42150E-001	9.90224E-004	7	...........	-327.66
	163	0.0328	-3.32088E-001	1.75735E-005	0.00000E+000	-3.32150E-001	1.11522E-003	7	...........	-327.66
	164	0.033	-3.22113E-001	1.81304E-005	0.00000E+000	-3.22150E-001	1.11522E-003	7	...........	-327.66
	165	0.0332	-3.12063E-001	1.86757E-005	0.00000E+000	-3.12150E-001	1.19022E-003	7	...........	-327.66
	166	0.0334	-3.02038E-001	1.92098E-005	0.00000E+000	-3.02150E-001	1.29022E-003	7	...........	-327.66
	167	0.0336	-2.92050E-001	1.97328E-005	0.00000E+000	-2.92150E-001	1.14022E-003	7	...........	-327.66
	168	0.0338	-2.82138E-001	2.02407E-005	0.00000E+000	-2.82150E-001	1.19022E-003	7	...........	-327.66
	169	0.034	-2.72100E-001	2.07462E-005	0.00000E+000	-2.72150E-001	1.09022E-003	7	...........	-327.66
	170	0.0342	-2.62125E-001	2.12333E-005	0.00000E+000	-2.62150E-001	1.06522E-003	7	...........	-327.66
	171	0.0344	-2.52088E-001	2.17079E-005	0.00000E+000	-2.52150E-001	9.15224E-004	7	...........	-327.66
	172	0.0346	-2.41963E-001	2.21699E-005	0.00000E+000	-2.42150E-001	1.09022E-003	7	...........	-327.66
	173	0.0348	-2.32075E-001	2.26217E-005	0.00000E+000	-2.32150E-001	1.04022E-003	7	...........	-327.66
	174	0.035	-2.22113E-001	2.30565E-005	0.00000E+000	-2.22150E-001	1.04022E-003	7	...........	-327.66
	175	0.0352	-2.12050E-001	2.34784E-005	0.00000E+000	-2.12150E-001	1.14022E-003	7	...........	-327.66
	176	0.0354	-2.02113E-001	2.38899E-005	0.00000E+000	-2.02150E-001	9.65224E-004	7	...........	-327.66
	177	0.0356	-1.92138E-001	2.42880E-005	0.00000E+000	-1.92150E-001	9.90224E-004	7	...........	-327.66
	178	0.0358	-1.82150E-001	2.46713E-005	0.00000E+000	-1.82150E-001	1.09022E-003	7	...........	-327.66
	179	0.036	-1.72075E-001	2.50418E-005	0.00000E+000	-1.72150E-001	1.09022E-003	7	...........	-327.66
	180	0.0362	-1.62275E-001	2.53966E-005	0.00000E+000	-1.62150E-001	1.09022E-003	7	...........	-327.66
	181	0.0364	-1.52125E-001	2.57419E-005	0.00000E+000	-1.52150E-001	1.21522E-003	7	...........	-327.66
	182	0.0366	-1.42188E-001	2.60687E-005	0.00000E+000	-1.42150E-001	1.04022E-003	7	...........	-327.66
	183	0.0368	-1.32125E-001	2.63930E-005	0.00000E+000	-1.32150E-001	1.06522E-003	7	...........	-327.66
	184	0.037	-1.22163E-001	2.66938E-005	0.00000E+000	-1.22150E-001	1.16522E-003	7	...........	-327.66
	185	0.0372	-1.12188E-001	2.69881E-005	0.00000E+000	-1.12150E-001	1.11522E-003	7	...........	-327.66
	186	0.0374	-1.02238E-001	2.72681E-005	0.00000E+000	-1.02150E-001	1.01522E-003	7	...........	-327.66
	187	0.0376	-9.22252E-002	2.75369E-005	0.00000E+000	-9.21500E-002	1.01522E-003	7	...........	-327.66
	188	0.0378	-8.22502E-002	2.77999E-005	0.00000E+000	-8.21500E-002	1.09022E-003	7	...........	-327.66
	189	0.038	-7.22002E-002	2.80440E-005	0.00000E+000	-7.21500E-002	1.19022E-003	7	...........	-327.66
	190	0.0382	-6.22377E-002	2.82810E-005	0.00000E+000	-6.21500E-002	1.04022E-003	7	...........	-327.66
	191	0.0384	-5.20502E-002	2.85050E-005	0.00000E+000	-5.21500E-002	1.11522E-003	7	...........	-327.66
	192	0.0386	-4.21377E-002	2.87218E-005	0.00000E+000	-4.21500E-002	1.14022E-003	7	...........	-327.66
	193	0.0388	-3.21252E-002	2.89241E-005	0.00000E+000	-3.21500E-002	1.24022E-003	7	...........	-327.66
	194	0.039	-2.22127E-002	2.91196E-005	0.00000E+000	-2.21500E-002	1.19022E-003	7	...........	-327.66
	195	0.0392	-1.22127E-002	2.92991E-005	0.00000E+000	-1.21500E-002	9.90224E-004	7	...........	-327.66
	196	0.0394	-2.22519E-003	2.94772E-005	0.00000E+000	-2.15001E-003	1.09022E-003	7	...........	-327.66
	197	0.0396	7.87481E-003	2.96409E-005	0.00000E+000	7.84999E-003	1.24022E-003	7	...........	-327.66
	198	0.0398	1.79373E-002	2.97995E-005	0.00000E+000	1.78500E-002	1.14022E-003	7	...........	-327.66
	199	0.04	2.79373E-002	2.99457E-005	0.00000E+000	2.78500E-002	1.04022E-003	7	...........	-327.66
	200	0.0402	3.78748E-002	3.00860E-005	0.00000E+000	3.78500E-002	1.06522E-003	7	...........	-327.66
	201	0.0404	4.79123E-002	3.02158E-005	0.00000E+000	4.78500E-002	1.14022E-003	7	...........	-327.66
	202	0.0406	5.78623E-002	3.03373E-005	0.00000E+000	5.78500E-002	1.06522E-003	7	...........	-327.66
	203	0.0408	6.79373E-002	3.04511E-005	0.00000E+000	6.78500E-002	1.14022E-003	7	...........	-327.66
	204	0.041	7.78123E-002	3.05616E-005	0.00000E+000	7.78500E-002	1.06522E-003	7	...........	-327.66
	205	0.0412	8.78748E-002	3.06633E-005	0.00000E+000	8.78500E-002	1.24022E-003	7	...........	-327.66
	206	0.0414	9.78248E-002	3.07528E-005	0.00000E+000	9.78500E-002	1.24022E-003	7	...........	-327.66
	207	0.0416	1.07912E-001	3.08406E-005	0.00000E+000	1.07850E-001	9.90224E-004	7	...........	-327.66
	208	0.0418	1.17887E-001	3.09209E-005	0.00000E+000	1.17850E-001	9.90224E-004	7	...........	-327.66
	209	0.042	1.27937E-001	3.09939E-005	0.00000E+000	1.27850E-001	1.24022E-003	7	...........	-327.66
	210	0.0422	1.37837E-001	3.10604E-005	0.00000E+000	1.37850E-001	1.14022E-003	7	...........	-327.66
	211	0.0424	1.47937E-001	3.11151E-005	0.00000E+000	1.47850E-001	1.06522E-003	7	...........	-327.66
	212	0.0426	1.57850E-001	3.11686E-005	0.00000E+000	1.57850E-001	1.16522E-003	7	...........	-327.66
	213	0.0428	1.67800E-001	3.12107E-005	0.00000E+000	1.67850E-001	1.29022E-003	7	...........	-327.66
	214	0.043	1.77887E-001	3.12519E-005	0.00000E+000	1.77850E-001	1.16522E-003	7	...........	-327.66
	215	0.0432	1.87925E-001	3.12852E-005	0.00000E+000	1.87850E-001	1.04022E-003	7	...........	-327.66
	216	0.0434	1.97862E-001	3.13087E-005	0.00000E+000	1.97850E-001	9.90224E-004	7	...........	-327.66
	217	0.0436	2.07787E-001	3.13267E-005	0.00000E+000	2.07850E-001	1.04022E-003	7	...........	-327.66
	218	0.0438	2.17787E-001	3.13372E-005	0.00000E+000	2.17850E-001	1.14022E-003	7	...........	-327.66
	219	0.044	2.27875E-001	3.13452E-005	0.00000E+000	2.27850E-001	1.16522E-003	7	...........	-327.66
	220	0.0442	2.37775E-001	3.13449E-005	0.00000E+000	2.37850E-001	1.19022E-003	7	...........	-327.66
	221	0.0444	2.47775E-001	3.13387E-005	0.00000E+000	2.47850E-001	9.65224E-004	7	...........	-327.66
	222	0.0446	2.57800E-001	3.13239E-005	0.00000E+000	2.57850E-001	1.19022E-003	7	...........	-327.66
	223	0.0448	2.67787E-001	3.13032E-005	0.00000E+000	2.67850E-001	1.09022E-003	7	...........	-327.66
	224	0.045	2.77837E-001	3.12789E-005	0.00000E+000	2.77850E-001	1.19022E-003	7	...........	-327.66
	225	0.0452	2.87837E-001	3.12454E-005	0.00000E+000	2.87850E-001	1.29022E-003	7	...........	-327.66
	226	0.0454	2.97887E-001	3.12112E-005	0.00000E+000	2.97850E-001	1.11522E-003	7	...........	-327.66
	227	0.0456	3.07875E-001	3.11686E-005	0.00000E+000	3.07850E-001	1.14022E-003	7	...........	-327.66
	228	0.0458	3.17900E-001	3.11261E-005	0.00000E+000	3.17850E-001	1.09022E-003	7	...........	-327.66
	229	0.046	3.27887E-001	3.10744E-005	0.00000E+000	3.27850E-001	1.04022E-003	7	...........	-327.66
	230	0.0462	3.37800E-001	3.10244E-005	0.00000E+000	3.37850E-001	1.06522E-003	7	...........	-327.66
	231	0.0464	3.47950E-001	3.09679E-005	0.00000E+000	3.47850E-001	1.14022E-003	7	...........	-327.66
	232	0.0466	3.57862E-001	3.09069E-005	0.00000E+000	3.57850E-001	1.24022E-003	7	...........	-327.66
	233	0.0468	3.67875E-001	3.08441E-005	0.00000E+000	3.67850E-001	1.11522E-003	7	...........	-327.66
	234	0.047	3.77875E-001	3.07798E-005	0.00000E+000	3.77850E-001	1.19022E-003	7	...........	-327.66
	235	0.0472	3.87937E-001	3.07101E-005	0.00000E+000	3.87850E-001	1.11522E-003	7	...........	-327.66
	236	0.0474	3.97837E-001	3.06351E-005	0.00000E+000	3.97850E-001	1.09022E-003	7	...........	-327.66
	237	0.0476	4.07800E-001	3.05663E-005	0.00000E+000	4.07850E-001	1.24022E-003	7	...........	-327.66
	238	0.0478	4.17775E-001	3.04923E-005	0.00000E+000	4.17850E-001	1.11522E-003	7	...........	-327.66
	239	0.048	4.27825E-001	3.04198E-005	0.00000E+000	4.27850E-001	1.16522E-003	7	...........	-327.66
	240	0.0482	4.37762E-001	3.03455E-005	0.00000E+000	4.37850E-001	1.29022E-003	7	...........	-327.66
	241	0.0484	4.47825E-001	3.02728E-005	0.00000E+000	4.47850E-001	1.16522E-003	7	...........	-327.66
	242	0.0486	4.57775E-001	3.01978E-005	0.00000E+000	4.57850E-001	1.24022E-003	7	...........	-327.66
	243	0.0488	4.67850E-001	3.01208E-005	0.00000E+000	4.67850E-001	1.19022E-003	7	...........	-327.66
	244	0.049	4.77775E-001	3.00492E-005	0.00000E+000	4.77850E-001	1.14022E-003	7	...........	-327.66
	245	0.0492	4.87887E-001	2.99797E-005	0.00000E+000	4.87850E-001	1.14022E-003	7	...........	-327.66
	246	0.0494	4.97850E-001	2.99117E-005	0.00000E+000	4.97850E-001	1.14022E-003	7	...........	-327.66
	247	0.0496	5.07875E-001	2.98450E-005	0.00000E+000	5.07850E-001	1.11522E-003	7	...........	-327.66
	248	0.0498	5.17850E-001	2.97780E-005	0.00000E+000	5.17850E-001	1.29022E-003	7	...........	-327.66
	249	0.05	5.27762E-001	2.97212E-005	0.00000E+000	5.27850E-001	1.04022E-003	7	...........	-327.66
	250	0.0502	5.37662E-001	2.96624E-005	0.00000E+000	5.37850E-001	1.11522E-003	7	...........	-327.66
	251	0.0504	5.47875E-001	2.96092E-005	0.00000E+000	5.47850E-001	1.09022E-003	7	...........	-327.66
	252	0.0506	5.57762E-001	2.95624E-005	0.00000E+000	5.57850E-001	1.19022E-003	7	...........	-327.66
	253	0.0508	5.67775E-001	2.95137E-005	0.00000E+000	5.67850E-001	1.21522E-003	7	...........	-327.66
	254	0.051	5.77700E-001	2.94749E-005	0.00000E+000	5.77850E-001	1.11522E-003	7	...........	-327.66
	255	0.0512	5.87837E-001	2.94399E-005	0.00000E+000	5.87850E-001	1.29022E-003	7	...........	-327.66
	256	0.0514	5.97775E-001	2.94074E-005	0.00000E+000	5.97850E-001	1.14022E-003	7	...........	-327.66
CURVE2	TABLE
	Pt	T	Vf	Im	Vu	Sig	Ach	IERange	Over	Temp
	#	s	V vs. Ref.	A	V	V	V	#	bits	deg C
	257	0.0516	5.89950E-001	2.70186E-005	0.00000E+000	5.90000E-001	1.19022E-003	7	...........	-327.66
	258	0.0518	5.79937E-001	2.45072E-005	0.00000E+000	5.80000E-001	1.14022E-003	7	...........	-327.66
	259	0.052	5.69987E-001	2.23992E-005	0.00000E+000	5.70000E-001	1.24022E-003	7	...........	-327.66
	260	0.0522	5.59912E-001	2.05947E-005	0.00000E+000	5.60000E-001	1.24022E-003	7	...........	-327.66
	261	0.0524	5.50075E-001	1.89915E-005	0.00000E+000	5.50000E-001	1.14022E-003	7	...........	-327.66
	262	0.0526	5.39987E-001	1.75470E-005	0.00000E+000	5.40000E-001	1.09022E-003	7	...........	-327.66
	263	0.0528	5.30037E-001	1.62254E-005	0.00000E+000	5.30000E-001	1.19022E-003	7	...........	-327.66
	264	0.053	5.19962E-001	1.49997E-005	0.00000E+000	5.20000E-001	1.04022E-003	7	...........	-327.66
	265	0.0532	5.09975E-001	1.38583E-005	0.00000E+000	5.10000E-001	1.19022E-003	7	...........	-327.66
	266	0.0534	4.99987E-001	1.27811E-005	0.00000E+000	5.00000E-001	1.01522E-003	7	...........	-327.66
	267	0.0536	4.89950E-001	1.17675E-005	0.00000E+000	4.90000E-001	1.01522E-003	7	...........	-327.66
	268	0.0538	4.79937E-001	1.08061E-005	0.00000E+000	4.80000E-001	1.09022E-003	7	...........	-327.66
	269	0.054	4.70025E-001	9.89325E-006	0.00000E+000	4.70000E-001	1.09022E-003	7	...........	-327.66
	270	0.0542	4.59962E-001	9.01038E-006	0.00000E+000	4.60000E-001	1.24022E-003	7	...........	-327.66
	271	0.0544	4.49987E-001	8.17152E-006	0.00000E+000	4.50000E-001	1.14022E-003	7	...........	-327.66
	272	0.0546	4.39987E-001	7.36141E-006	0.00000E+000	4.40000E-001	1.21522E-003	7	...........	-327.66
	273	0.0548	4.30037E-001	6.58180E-006	0.00000E+000	4.30000E-001	1.24022E-003	7	...........	-327.66
	274	0.055	4.20012E-001	5.83320E-006	0.00000E+000	4.20000E-001	1.06522E-003	7	...........	-327.66
	275	0.0552	4.09950E-001	5.10510E-006	0.00000E+000	4.10000E-001	1.06522E-003	7	...........	-327.66
	276	0.0554	3.99975E-001	4.39925E-006	0.00000E+000	4.00000E-001	1.11522E-003	7	...........	-327.66
	277	0.0556	3.89987E-001	3.71291E-006	0.00000E+000	3.90000E-001	1.09022E-003	7	...........	-327.66
	278	0.0558	3.79987E-001	3.04982E-006	0.00000E+000	3.80000E-001	1.01522E-003	7	...........	-327.66
	279	0.056	3.70012E-001	2.40423E-006	0.00000E+000	3.70000E-001	1.19022E-003	7	...........	-327.66
	280	0.0562	3.59987E-001	1.77615E-006	0.00000E+000	3.60000E-001	1.19022E-003	7	...........	-327.66
	281	0.0564	3.50062E-001	1.16306E-006	0.00000E+000	3.50000E-001	1.16522E-003	7	...........	-327.66
	282	0.0566	3.39937E-001	5.61980E-007	0.00000E+000	3.40000E-001	1.06522E-003	7	...........	-327.66
	283	0.0568	3.30137E-001	-1.98488E-008	0.00000E+000	3.30000E-001	1.21522E-003	7	...........	-327.66
	284	0.057	3.20037E-001	-5.91177E-007	0.00000E+000	3.20000E-001	1.11522E-003	7	...........	-327.66
	285	0.0572	3.10162E-001	-1.14950E-006	0.00000E+000	3.10000E-001	1.14022E-003	7	...........	-327.66
	286	0.0574	3.00062E-001	-1.69858E-006	0.00000E+000	3.00000E-001	1.14022E-003	7	...........	-327.66
	287	0.0576	2.90100E-001	-2.23615E-006	0.00000E+000	2.90000E-001	1.14022E-003	7	...........	-327.66
	288	0.0578	2.80012E-001	-2.76147E-006	0.00000E+000	2.80000E-001	1.14022E-003	7	...........	-327.66
	289	0.058	2.70125E-001	-3.27854E-006	0.00000E+000	2.70000E-001	1.11522E-003	7	...........	-327.66
	290	0.0582	2.60012E-001	-3.78836E-006	0.00000E+000	2.60000E-001	1.19022E-003	7	...........	-327.66
	291	0.0584	2.50162E-001	-4.28493E-006	0.00000E+000	2.50000E-001	1.29022E-003	7	...........	-327.66
	292	0.0586	2.40100E-001	-4.77550E-006	0.00000E+000	2.40000E-001	1.11522E-003	7	...........	-327.66
	293	0.0588	2.30162E-001	-5.25981E-006	0.00000E+000	2.30000E-001	1.09022E-003	7	...........	-327.66
	294	0.059	2.19975E-001	-5.73288E-006	0.00000E+000	2.20000E-001	1.16522E-003	7	...........	-327.66
	295	0.0592	2.10162E-001	-6.20294E-006	0.00000E+000	2.10000E-001	1.19022E-003	7	...........	-327.66
	296	0.0594	1.99975E-001	-6.66625E-006	0.00000E+000	2.00000E-001	1.16522E-003	7	...........	-327.66
	297	0.0596	1.90137E-001	-7.12132E-006	0.00000E+000	1.90000E-001	1.09022E-003	7	...........	-327.66
	298	0.0598	1.80025E-001	-7.57363E-006	0.00000E+000	1.80000E-001	1.11522E-003	7	...........	-327.66
	299	0.06	1.70287E-001	-8.01369E-006	0.00000E+000	1.70000E-001	1.14022E-003	7	...........	-327.66
	300	0.0602	1.60187E-001	-8.45575E-006	0.00000E+000	1.60000E-001	1.14022E-003	7	...........	-327.66
	301	0.0604	1.50225E-001	-8.88956E-006	0.00000E+000	1.50000E-001	1.21522E-003	7	...........	-327.66
	302	0.0606	1.40125E-001	-9.32362E-006	0.00000E+000	1.40000E-001	1.09022E-003	7	...........	-327.66
	303	0.0608	1.30250E-001	-9.74392E-006	0.00000E+000	1.30000E-001	1.16522E-003	7	...........	-327.66
	304	0.061	1.20100E-001	-1.01657E-005	0.00000E+000	1.20000E-001	1.24022E-003	7	...........	-327.66
	305	0.0612	1.10187E-001	-1.05838E-005	0.00000E+000	1.10000E-001	1.11522E-003	7	...........	-327.66
	306	0.0614	1.00075E-001	-1.09948E-005	0.00000E+000	1.00000E-001	1.11522E-003	7	...........	-327.66
	307	0.0616	9.02623E-002	-1.14042E-005	0.00000E+000	9.00000E-002	1.19022E-003	7	...........	-327.66
	308	0.0618	8.00248E-002	-1.18100E-005	0.00000E+000	8.00000E-002	1.19022E-003	7	...........	-327.66
	309	0.062	7.02623E-002	-1.22163E-005	0.00000E+000	7.00000E-002	1.09022E-003	7	...........	-327.66
	310	0.0622	6.01748E-002	-1.26151E-005	0.00000E+000	6.00000E-002	1.16522E-003	7	...........	-327.66
	311	0.0624	5.01873E-002	-1.30101E-005	0.00000E+000	5.00000E-002	1.19022E-003	7	...........	-327.66
	312	0.0626	4.00748E-002	-1.34049E-005	0.00000E+000	4.00000E-002	1.21522E-003	7	...........	-327.66
	313	0.0628	3.01873E-002	-1.37967E-005	0.00000E+000	3.00000E-002	1.11522E-003	7	...........	-327.66
	314	0.063	2.02123E-002	-1.41830E-005	0.00000E+000	2.00000E-002	1.24022E-003	7	...........	-327.66
	315	0.0632	1.02998E-002	-1.45698E-005	0.00000E+000	9.99999E-003	1.19022E-003	7	...........	-327.66
	316	0.0634	1.49812E-004	-1.49519E-005	0.00000E+000	-1.49012E-008	1.09022E-003	7	...........	-327.66
	317	0.0636	-9.81269E-003	-1.53399E-005	0.00000E+000	-1.00000E-002	1.11522E-003	7	...........	-327.66
	318	0.0638	-1.98877E-002	-1.57142E-005	0.00000E+000	-2.00000E-002	1.11522E-003	7	...........	-327.66
	319	0.064	-2.97502E-002	-1.60930E-005	0.00000E+000	-3.00000E-002	1.29022E-003	7	...........	-327.66
	320	0.0642	-3.98127E-002	-1.64736E-005	0.00000E+000	-4.00000E-002	1.04022E-003	7	...........	-327.66
	321	0.0644	-4.97502E-002	-1.68469E-005	0.00000E+000	-5.00000E-002	1.24022E-003	7	...........	-327.66
	322	0.0646	-5.99252E-002	-1.72204E-005	0.00000E+000	-6.00000E-002	1.11522E-003	7	...........	-327.66
	323	0.0648	-6.97377E-002	-1.75907E-005	0.00000E+000	-7.00000E-002	1.16522E-003	7	...........	-327.66
	324	0.065	-7.98127E-002	-1.79593E-005	0.00000E+000	-8.00000E-002	1.11522E-003	7	...........	-327.66
	325	0.0652	-8.97752E-002	-1.83266E-005	0.00000E+000	-9.00000E-002	1.06522E-003	7	...........	-327.66
	326	0.0654	-9.99127E-002	-1.86919E-005	0.00000E+000	-1.00000E-001	1.21522E-003	7	...........	-327.66
	327	0.0656	-1.09763E-001	-1.90547E-005	0.00000E+000	-1.10000E-001	1.19022E-003	7	...........	-327.66
	328	0.0658	-1.19925E-001	-1.94167E-005	0.00000E+000	-1.20000E-001	1.09022E-003	7	...........	-327.66
	329	0.066	-1.29813E-001	-1.97770E-005	0.00000E+000	-1.30000E-001	1.11522E-003	7	...........	-327.66
	330	0.0662	-1.39863E-001	-2.01371E-005	0.00000E+000	-1.40000E-001	1.24022E-003	7	...........	-327.66
	331	0.0664	-1.49663E-001	-2.04961E-005	0.00000E+000	-1.50000E-001	1.19022E-003	7	...........	-327.66
	332	0.0666	-1.59713E-001	-2.08542E-005	0.00000E+000	-1.60000E-001	1.19022E-003	7	...........	-327.66
	333	0.0668	-1.69788E-001	-2.12082E-005	0.00000E+000	-1.70000E-001	1.06522E-003	7	...........	-327.66
	334	0.067	-1.79788E-001	-2.15625E-005	0.00000E+000	-1.80000E-001	1.19022E-003	7	...........	-327.66
	335	0.0672	-1.89663E-001	-2.19138E-005	0.00000E+000	-1.90000E-001	1.11522E-003	7	...........	-327.66
	336	0.0674	-1.99838E-001	-2.22671E-005	0.00000E+000	-2.00000E-001	1.19022E-003	7	...........	-327.66
	337	0.0676	-2.09700E-001	-2.26137E-005	0.00000E+000	-2.10000E-001	1.14022E-003	7	...........	-327.66
	338	0.0678	-2.19775E-001	-2.29642E-005	0.00000E+000	-2.20000E-001	1.16522E-003	7	...........	-327.66
	339	0.068	-2.29700E-001	-2.33100E-005	0.00000E+000	-2.30000E-001	1.21522E-003	7	...........	-327.66
	340	0.0682	-2.39825E-001	-2.36518E-005	0.00000E+000	-2.40000E-001	1.24022E-003	7	...........	-327.66
	341	0.0684	-2.49750E-001	-2.39986E-005	0.00000E+000	-2.50000E-001	1.11522E-003	7	...........	-327.66
	342	0.0686	-2.59825E-001	-2.43379E-005	0.00000E+000	-2.60000E-001	1.09022E-003	7	...........	-327.66
	343	0.0688	-2.69688E-001	-2.46727E-005	0.00000E+000	-2.70000E-001	1.24022E-003	7	...........	-327.66
	344	0.069	-2.79800E-001	-2.50140E-005	0.00000E+000	-2.80000E-001	1.21522E-003	7	...........	-327.66
	345	0.0692	-2.89750E-001	-2.53491E-005	0.00000E+000	-2.90000E-001	1.04022E-003	7	...........	-327.66
	346	0.0694	-2.99775E-001	-2.56808E-005	0.00000E+000	-3.00000E-001	1.19022E-003	7	...........	-327.66
	347	0.0696	-3.09688E-001	-2.60111E-005	0.00000E+000	-3.10000E-001	9.40224E-004	7	...........	-327.66
	348	0.0698	-3.19875E-001	-2.63404E-005	0.00000E+000	-3.20000E-001	1.24022E-003	7	...........	-327.66
	349	0.07	-3.29763E-001	-2.66667E-005	0.00000E+000	-3.30000E-001	1.09022E-003	7	...........	-327.66
	350	0.0702	-3.39850E-001	-2.69938E-005	0.00000E+000	-3.40000E-001	1.24022E-003	7	...........	-327.66
	351	0.0704	-3.49725E-001	-2.73148E-005	0.00000E+000	-3.50000E-001	1.06522E-003	7	...........	-327.66
	352	0.0706	-3.59813E-001	-2.76359E-005	0.00000E+000	-3.60000E-001	1.21522E-003	7	...........	-327.66
	353	0.0708	-3.69775E-001	-2.79507E-005	0.00000E+000	-3.70000E-001	9.90224E-004	7	...........	-327.66
	354	0.071	-3.79800E-001	-2.82634E-005	0.00000E+000	-3.80000E-001	1.16522E-003	7	...........	-327.66
	355	0.0712	-3.89763E-001	-2.85765E-005	0.00000E+000	-3.90000E-001	1.06522E-003	7	...........	-327.66
	356	0.0714	-3.99775E-001	-2.88853E-005	0.00000E+000	-4.00000E-001	1.01522E-003	7	...........	-327.66
	357	0.0716	-4.09713E-001	-2.91883E-005	0.00000E+000	-4.10000E-001	1.06522E-003	7	...........	-327.66
	358	0.0718	-4.19688E-001	-2.94939E-005	0.00000E+000	-4.20000E-001	1.11522E-003	7	...........	-327.66
	359	0.072	-4.29650E-001	-2.97934E-005	0.00000E+000	-4.30000E-001	1.11522E-003	7	...........	-327.66
	360	0.0722	-4.39713E-001	-3.00864E-005	0.00000E+000	-4.40000E-001	1.19022E-003	7	...........	-327.66
	361	0.0724	-4.49713E-001	-3.03800E-005	0.00000E+000	-4.50000E-001	1.24022E-003	7	...........	-327.66
	362	0.0726	-4.59738E-001	-3.06710E-005	0.00000E+000	-4.60000E-001	1.14022E-003	7	...........	-327.66
	363	0.0728	-4.69650E-001	-3.09556E-005	0.00000E+000	-4.70000E-001	1.16522E-003	7	...........	-327.66
	364	0.073	-4.79675E-001	-3.12386E-005	0.00000E+000	-4.80000E-001	1.01522E-003	7	...........	-327.66
	365	0.0732	-4.89738E-001	-3.15166E-005	0.00000E+000	-4.90000E-001	1.06522E-003	7	...........	-327.66
	366	0.0734	-4.99775E-001	-3.17959E-005	0.00000E+000	-5.00000E-001	1.14022E-003	7	...........	-327.66
	367	0.0736	-5.09663E-001	-3.20662E-005	0.00000E+000	-5.10000E-001	1.19022E-003	7	...........	-327.66
	368	0.0738	-5.19750E-001	-3.23365E-005	0.00000E+000	-5.20000E-001	1.06522E-003	7	...........	-327.66
	369	0.074	-5.29763E-001	-3.26003E-005	0.00000E+000	-5.30000E-001	1.21522E-003	7	...........	-327.66
	370	0.0742	-5.39663E-001	-3.28611E-005	0.00000E+000	-5.40000E-001	1.16522E-003	7	...........	-327.66
	371	0.0744	-5.49575E-001	-3.31186E-005	0.00000E+000	-5.50000E-001	1.11522E-003	7	...........	-327.66
	372	0.0746	-5.59738E-001	-3.33684E-005	0.00000E+000	-5.60000E-001	1.11522E-003	7	...........	-327.66
	373	0.0748	-5.69688E-001	-3.36177E-005	0.00000E+000	-5.70000E-001	1.19022E-003	7	...........	-327.66
	374	0.075	-5.79713E-001	-3.38637E-005	0.00000E+000	-5.80000E-001	1.16522E-003	7	...........	-327.66
	375	0.0752	-5.89675E-001	-3.41025E-005	0.00000E+000	-5.90000E-001	1.11522E-003	7	...........	-327.66
	376	0.0754	-5.99650E-001	-3.43358E-005	0.00000E+000	-6.00000E-001	1.11522E-003	7	...........	-327.66
	377	0.0756	-6.09713E-001	-3.45663E-005	0.00000E+000	-6.10000E-001	1.11522E-003	7	...........	-327.66
	378	0.0758	-6.19650E-001	-3.47896E-005	0.00000E+000	-6.20000E-001	1.29022E-003	7	...........	-327.66
	379	0.076	-6.29638E-001	-3.50121E-005	0.00000E+000	-6.30000E-001	1.19022E-003	7	...........	-327.66
	380	0.0762	-6.39713E-001	-3.52266E-005	0.00000E+000	-6.40000E-001	1.16522E-003	7	...........	-327.66
	381	0.0764	-6.49625E-001	-3.54372E-005	0.00000E+000	-6.50000E-001	1.29022E-003	7	...........	-327.66
	382	0.0766	-6.59688E-001	-3.56412E-005	0.00000E+000	-6.60000E-001	1.16522E-003	7	...........	-327.66
	383	0.0768	-6.69663E-001	-3.58407E-005	0.00000E+000	-6.70000E-001	1.14022E-003	7	...........	-327.66
	384	0.077	-6.79613E-001	-3.60308E-005	0.00000E+000	-6.80000E-001	1.14022E-003	7	...........	-327.66
	385	0.0772	-6.89663E-001	-3.62150E-005	0.00000E+000	-6.90000E-001	1.01522E-003	7	...........	-327.66
	386	0.0774	-6.99638E-001	-3.63948E-005	0.00000E+000	-7.00000E-001	1.09022E-003	7	...........	-327.66
	387	0.0776	-7.09650E-001	-3.65693E-005	0.00000E+000	-7.10000E-001	1.14022E-003	7	...........	-327.66
	388	0.0778	-7.19638E-001	-3.67344E-005	0.00000E+000	-7.20000E-001	1.21522E-003	7	...........	-327.66
	389	0.078	-7.29688E-001	-3.68916E-005	0.00000E+000	-7.30000E-001	1.16522E-003	7	...........	-327.66
	390	0.0782	-7.39650E-001	-3.70456E-005	0.00000E+000	-7.40000E-001	1.14022E-003	7	...........	-327.66
	391	0.0784	-7.49638E-001	-3.71857E-005	0.00000E+000	-7.50000E-001	1.21522E-003	7	...........	-327.66
	392	0.0786	-7.59663E-001	-3.73204E-005	0.00000E+000	-7.60000E-001	1.11522E-003	7	...........	-327.66
	393	0.0788	-7.69638E-001	-3.74430E-005	0.00000E+000	-7.70000E-001	1.19022E-003	7	...........	-327.66
	394	0.079	-7.79588E-001	-3.75570E-005	0.00000E+000	-7.80000E-001	1.19022E-003	7	...........	-327.66
	395	0.0792	-7.89650E-001	-3.76620E-005	0.00000E+000	-7.90000E-001	1.21522E-003	7	...........	-327.66
	396	0.0794	-7.99600E-001	-3.77570E-005	0.00000E+000	-8.00000E-001	1.29022E-003	7	...........	-327.66
	397	0.0796	-8.09613E-001	-3.78338E-005	0.00000E+000	-8.10000E-001	1.21522E-003	7	...........	-327.66
	398	0.0798	-8.19738E-001	-3.79055E-005	0.00000E+000	-8.20000E-001	1.14022E-003	7	...........	-327.66
	399	0.08	-8.29625E-001	-3.79595E-005	0.00000E+000	-8.30000E-001	1.19022E-003	7	...........	-327.66
	400	0.0802	-8.39725E-001	-3.79953E-005	0.00000E+000	-8.40000E-001	1.19022E-003	7	...........	-327.66
	401	0.0804	-8.49675E-001	-3.80195E-005	0.00000E+000	-8.50000E-001	9.65224E-004	7	...........	-327.66
	402	0.0806	-8.59675E-001	-3.80273E-005	0.00000E+000	-8.60000E-001	1.14022E-003	7	...........	-327.66
	403	0.0808	-8.69613E-001	-3.80170E-005	0.00000E+000	-8.70000E-001	1.06522E-003	7	...........	-327.66
	404	0.081	-8.79588E-001	-3.79823E-005	0.00000E+000	-8.80000E-001	1.21522E-003	7	...........	-327.66
	405	0.0812	-8.89663E-001	-3.79298E-005	0.00000E+000	-8.90000E-001	1.16522E-003	7	...........	-327.66
	406	0.0814	-8.99638E-001	-3.78518E-005	0.00000E+000	-9.00000E-001	1.14022E-003	7	...........	-327.66
	407	0.0816	-8.89713E-001	-3.54149E-005	0.00000E+000	-8.90000E-001	1.01522E-003	7	...........	-327.66
	408	0.0818	-8.79688E-001	-3.29351E-005	0.00000E+000	-8.80000E-001	1.06522E-003	7	...........	-327.66
	409	0.082	-8.69725E-001	-3.07358E-005	0.00000E+000	-8.70000E-001	1.21522E-003	7	...........	-327.66
	410	0.0822	-8.59775E-001	-2.87345E-005	0.00000E+000	-8.60000E-001	1.16522E-003	7	...........	-327.66
	411	0.0824	-8.49763E-001	-2.68770E-005	0.00000E+000	-8.50000E-001	9.90224E-004	7	...........	-327.66
	412	0.0826	-8.39813E-001	-2.51383E-005	0.00000E+000	-8.40000E-001	1.16522E-003	7	...........	-327.66
	413	0.0828	-8.29663E-001	-2.34930E-005	0.00000E+000	-8.30000E-001	1.21522E-003	7	...........	-327.66
	414	0.083	-8.19788E-001	-2.19358E-005	0.00000E+000	-8.20000E-001	1.04022E-003	7	...........	-327.66
	415	0.0832	-8.09688E-001	-2.04449E-005	0.00000E+000	-8.10000E-001	1.24022E-003	7	...........	-327.66
	416	0.0834	-7.99688E-001	-1.90227E-005	0.00000E+000	-8.00000E-001	1.09022E-003	7	...........	-327.66
	417	0.0836	-7.89663E-001	-1.76555E-005	0.00000E+000	-7.90000E-001	1.11522E-003	7	...........	-327.66
	418	0.0838	-7.79750E-001	-1.63448E-005	0.00000E+000	-7.80000E-001	1.01522E-003	7	...........	-327.66
	419	0.084	-7.69888E-001	-1.50777E-005	0.00000E+000	-7.70000E-001	1.01522E-003	7	...........	-327.66
	420	0.0842	-7.59838E-001	-1.38635E-005	0.00000E+000	-7.60000E-001	1.16522E-003	7	...........	-327.66
	421	0.0844	-7.49638E-001	-1.26916E-005	0.00000E+000	-7.50000E-001	1.19022E-003	7	...........	-327.66
	422	0.0846	-7.39838E-001	-1.15587E-005	0.00000E+000	-7.40000E-001	1.04022E-003	7	...........	-327.66
	423	0.0848	-7.29725E-001	-1.04688E-005	0.00000E+000	-7.30000E-001	1.14022E-003	7	...........	-327.66
	424	0.085	-7.19750E-001	-9.41588E-006	0.00000E+000	-7.20000E-001	1.19022E-003	7	...........	-327.66
	425	0.0852	-7.09763E-001	-8.40324E-006	0.00000E+000	-7.10000E-001	1.14022E-003	7	...........	-327.66
	426	0.0854	-6.99875E-001	-7.42211E-006	0.00000E+000	-7.00000E-001	1.01522E-003	7	...........	-327.66
	427	0.0856	-6.89788E-001	-6.46873E-006	0.00000E+000	-6.90000E-001	1.21522E-003	7	...........	-327.66
	428	0.0858	-6.79738E-001	-5.55410E-006	0.00000E+000	-6.80000E-001	1.29022E-003	7	...........	-327.66
	429	0.086	-6.69750E-001	-4.66223E-006	0.00000E+000	-6.70000E-001	1.19022E-003	7	...........	-327.66
	430	0.0862	-6.59888E-001	-3.79636E-006	0.00000E+000	-6.60000E-001	1.24022E-003	7	...........	-327.66
	431	0.0864	-6.49688E-001	-2.95975E-006	0.00000E+000	-6.50000E-001	1.09022E-003	7	...........	-327.66
	432	0.0866	-6.39813E-001	-2.14864E-006	0.00000E+000	-6.40000E-001	1.14022E-003	7	...........	-327.66
	433	0.0868	-6.29675E-001	-1.35328E-006	0.00000E+000	-6.30000E-001	1.14022E-003	7	...........	-327.66
	434	0.087	-6.19838E-001	-5.80925E-007	0.00000E+000	-6.20000E-001	1.24022E-003	7	...........	-327.66
	435	0.0872	-6.09913E-001	1.73678E-007	0.00000E+000	-6.10000E-001	1.19022E-003	7	...........	-327.66
	436	0.0874	-5.99950E-001	9.09528E-007	0.00000E+000	-6.00000E-001	1.14022E-003	7	...........	-327.66
	437	0.0876	-5.89813E-001	1.63188E-006	0.00000E+000	-5.90000E-001	1.14022E-003	7	...........	-327.66
	438	0.0878	-5.79925E-001	2.34422E-006	0.00000E+000	-5.80000E-001	9.40224E-004	7	...........	-327.66
	439	0.088	-5.69888E-001	3.04382E-006	0.00000E+000	-5.70000E-001	1.24022E-003	7	...........	-327.66
	440	0.0882	-5.59900E-001	3.73341E-006	0.00000E+000	-5.60000E-001	1.24022E-003	7	...........	-327.66
	441	0.0884	-5.49700E-001	4.41576E-006	0.00000E+000	-5.50000E-001	1.11522E-003	7	...........	-327.66
	442	0.0886	-5.39988E-001	5.08935E-006	0.00000E+000	-5.40000E-001	1.01522E-003	7	...........	-327.66
	443	0.0888	-5.29900E-001	5.76119E-006	0.00000E+000	-5.30000E-001	1.14022E-003	7	...........	-327.66
	444	0.089	-5.19988E-001	6.42503E-006	0.00000E+000	-5.20000E-001	1.11522E-003	7	...........	-327.66
	445	0.0892	-5.09850E-001	7.08612E-006	0.00000E+000	-5.10000E-001	1.16522E-003	7	...........	-327.66
	446	0.0894	-4.99838E-001	7.74346E-006	0.00000E+000	-5.00000E-001	1.04022E-003	7	...........	-327.66
	447	0.0896	-4.89788E-001	8.40605E-006	0.00000E+000	-4.90000E-001	1.29022E-003	7	...........	-327.66
	448	0.0898	-4.79938E-001	9.06164E-006	0.00000E+000	-4.80000E-001	1.24022E-003	7	...........	-327.66
	449	0.09	-4.69738E-001	9.71573E-006	0.00000E+000	-4.70000E-001	1.09022E-003	7	...........	-327.66
	450	0.0902	-4.59950E-001	1.03718E-005	0.00000E+000	-4.60000E-001	1.16522E-003	7	...........	-327.66
	451	0.0904	-4.49950E-001	1.10294E-005	0.00000E+000	-4.50000E-001	1.01522E-003	7	...........	-327.66
	452	0.0906	-4.39988E-001	1.16835E-005	0.00000E+000	-4.40000E-001	1.14022E-003	7	...........	-327.66
	453	0.0908	-4.29938E-001	1.23418E-005	0.00000E+000	-4.30000E-001	1.29022E-003	7	...........	-327.66
	454	0.091	-4.19988E-001	1.29974E-005	0.00000E+000	-4.20000E-001	1.09022E-003	7	...........	-327.66
	455	0.0912	-4.10013E-001	1.36535E-005	0.00000E+000	-4.10000E-001	1.24022E-003	7	...........	-327.66
	456	0.0914	-3.99913E-001	1.43056E-005	0.00000E+000	-4.00000E-001	1.24022E-003	7	...........	-327.66
	457	0.0916	-3.90063E-001	1.49577E-005	0.00000E+000	-3.90000E-001	1.04022E-003	7	...........	-327.66
	458	0.0918	-3.80075E-001	1.56010E-005	0.00000E+000	-3.80000E-001	1.19022E-003	7	...........	-327.66
	459	0.092	-3.69788E-001	1.62486E-005	0.00000E+000	-3.70000E-001	1.19022E-003	7	...........	-327.66
	460	0.0922	-3.60063E-001	1.68885E-005	0.00000E+000	-3.60000E-001	1.21522E-003	7	...........	-327.66
	461	0.0924	-3.49988E-001	1.75180E-005	0.00000E+000	-3.50000E-001	1.01522E-003	7	...........	-327.66
	462	0.0926	-3.39988E-001	1.81466E-005	0.00000E+000	-3.40000E-001	1.16522E-003	7	...........	-327.66
	463	0.0928	-3.29988E-001	1.87617E-005	0.00000E+000	-3.30000E-001	1.09022E-003	7	...........	-327.66
	464	0.093	-3.20013E-001	1.93668E-005	0.00000E+000	-3.20000E-001	9.90224E-004	7	...........	-327.66
	465	0.0932	-3.09963E-001	1.99676E-005	0.00000E+000	-3.10000E-001	1.11522E-003	7	...........	-327.66
	466	0.0934	-3.00038E-001	2.05527E-005	0.00000E+000	-3.00000E-001	1.09022E-003	7	...........	-327.66
	467	0.0936	-2.89988E-001	2.11243E-005	0.00000E+000	-2.90000E-001	1.14022E-003	7	...........	-327.66
	468	0.0938	-2.79963E-001	2.16799E-005	0.00000E+000	-2.80000E-001	1.19022E-003	7	...........	-327.66
	469	0.094	-2.69975E-001	2.22237E-005	0.00000E+000	-2.70000E-001	1.09022E-003	7	...........	-327.66
	470	0.0942	-2.60063E-001	2.27553E-005	0.00000E+000	-2.60000E-001	1.14022E-003	7	...........	-327.66
	471	0.0944	-2.50013E-001	2.32633E-005	0.00000E+000	-2.50000E-001	1.09022E-003	7	...........	-327.66
	472	0.0946	-2.40013E-001	2.37601E-005	0.00000E+000	-2.40000E-001	1.11522E-003	7	...........	-327.66
	473	0.0948	-2.29950E-001	2.42417E-005	0.00000E+000	-2.30000E-001	1.09022E-003	7	...........	-327.66
	474	0.095	-2.19925E-001	2.47118E-005	0.00000E+000	-2.20000E-001	1.11522E-003	7	...........	-327.66
	475	0.0952	-2.09925E-001	2.51551E-005	0.00000E+000	-2.10000E-001	1.06522E-003	7	...........	-327.66
	476	0.0954	-2.00038E-001	2.55861E-005	0.00000E+000	-2.00000E-001	1.16522E-003	7	...........	-327.66
	477	0.0956	-1.89838E-001	2.59987E-005	0.00000E+000	-1.90000E-001	1.16522E-003	7	...........	-327.66
	478	0.0958	-1.80063E-001	2.63945E-005	0.00000E+000	-1.80000E-001	1.21522E-003	7	...........	-327.66
	479	0.096	-1.70025E-001	2.67743E-005	0.00000E+000	-1.70000E-001	1.16522E-003	7	...........	-327.66
	480	0.0962	-1.60025E-001	2.71334E-005	0.00000E+000	-1.60000E-001	1.21522E-003	7	...........	-327.66
	481	0.0964	-1.50038E-001	2.74824E-005	0.00000E+000	-1.50000E-001	1.09022E-003	7	...........	-327.66
	482	0.0966	-1.40038E-001	2.78154E-005	0.00000E+000	-1.40000E-001	1.24022E-003	7	...........	-327.66
	483	0.0968	-1.30025E-001	2.81300E-005	0.00000E+000	-1.30000E-001	1.21522E-003	7	...........	-327.66
	484	0.097	-1.20063E-001	2.84320E-005	0.00000E+000	-1.20000E-001	1.29022E-003	7	...........	-327.66
	485	0.0972	-1.09988E-001	2.87206E-005	0.00000E+000	-1.10000E-001	1.16522E-003	7	...........	-327.66
	486	0.0974	-1.00000E-001	2.89966E-005	0.00000E+000	-1.00000E-001	1.29022E-003	7	...........	-327.66
	487	0.0976	-9.00252E-002	2.92559E-005	0.00000E+000	-9.00000E-002	1.11522E-003	7	...........	-327.66
	488	0.0978	-8.00627E-002	2.95017E-005	0.00000E+000	-8.00000E-002	1.14022E-003	7	...........	-327.66
	489	0.098	-6.99502E-002	2.97380E-005	0.00000E+000	-7.00000E-002	1.24022E-003	7	...........	-327.66
	490	0.0982	-6.00127E-002	2.99567E-005	0.00000E+000	-6.00000E-002	1.19022E-003	7	...........	-327.66
	491	0.0984	-5.00252E-002	3.01698E-005	0.00000E+000	-5.00000E-002	1.21522E-003	7	...........	-327.66
	492	0.0986	-3.99877E-002	3.03718E-005	0.00000E+000	-4.00000E-002	1.19022E-003	7	...........	-327.66
	493	0.0988	-2.99377E-002	3.05596E-005	0.00000E+000	-3.00000E-002	1.14022E-003	7	...........	-327.66
	494	0.099	-1.99877E-002	3.07341E-005	0.00000E+000	-2.00000E-002	1.16522E-003	7	...........	-327.66
	495	0.0992	-1.00127E-002	3.09036E-005	0.00000E+000	-1.00000E-002	1.29022E-003	7	...........	-327.66
	496	0.0994	-1.37688E-004	3.10609E-005	0.00000E+000	-1.49012E-008	1.14022E-003	7	...........	-327.66
	497	0.0996	1.00248E-002	3.12149E-005	0.00000E+000	9.99999E-003	1.19022E-003	7	...........	-327.66
	498	0.0998	1.99373E-002	3.13537E-005	0.00000E+000	2.00000E-002	1.14022E-003	7	...........	-327.66
	499	0.1	2.99373E-002	3.14839E-005	0.00000E+000	3.00000E-002	1.21522E-003	7	...........	-327.66
	500	0.1002	3.99123E-002	3.16100E-005	0.00000E+000	4.00000E-002	1.14022E-003	7	...........	-327.66
	501	0.1004	5.00873E-002	3.17310E-005	0.00000E+000	5.00000E-002	1.01522E-003	7	...........	-327.66
	502	0.1006	6.00123E-002	3.18372E-005	0.00000E+000	6.00000E-002	1.24022E-003	7	...........	-327.66
	503	0.1008	6.99373E-002	3.19420E-005	0.00000E+000	7.00000E-002	1.14022E-003	7	...........	-327.66
	504	0.101	7.99623E-002	3.20358E-005	0.00000E+000	8.00000E-002	1.19022E-003	7	...........	-327.66
	505	0.1012	9.00373E-002	3.21233E-005	0.00000E+000	9.00000E-002	1.01522E-003	7	...........	-327.66
	506	0.1014	9.99998E-002	3.21985E-005	0.00000E+000	1.00000E-001	1.11522E-003	7	...........	-327.66
	507	0.1016	1.09962E-001	3.22813E-005	0.00000E+000	1.10000E-001	1.16522E-003	7	...........	-327.66
	508	0.1018	1.19950E-001	3.23468E-005	0.00000E+000	1.20000E-001	1.11522E-003	7	...........	-327.66
	509	0.102	1.30062E-001	3.24086E-005	0.00000E+000	1.30000E-001	1.21522E-003	7	...........	-327.66
	510	0.1022	1.40050E-001	3.24643E-005	0.00000E+000	1.40000E-001	1.29022E-003	7	...........	-327.66
	511	0.1024	1.50062E-001	3.25148E-005	0.00000E+000	1.50000E-001	1.21522E-003	7	...........	-327.66
	512	0.1026	1.59975E-001	3.25503E-005	0.00000E+000	1.60000E-001	1.19022E-003	7	...........	-327.66
	513	0.1028	1.70000E-001	3.25858E-005	0.00000E+000	1.70000E-001	1.16522E-003	7	...........	-327.66
	514	0.103	1.79962E-001	3.26106E-005	0.00000E+000	1.80000E-001	1.21522E-003	7	...........	-327.66
	515	0.1032	1.89912E-001	3.26303E-005	0.00000E+000	1.90000E-001	1.19022E-003	7	...........	-327.66
	516	0.1034	1.99975E-001	3.26449E-005	0.00000E+000	2.00000E-001	9.65224E-004	7	...........	-327.66
	517	0.1036	2.09925E-001	3.26436E-005	0.00000E+000	2.10000E-001	1.24022E-003	7	...........	-327.66
	518	0.1038	2.19950E-001	3.26424E-005	0.00000E+000	2.20000E-001	1.11522E-003	7	...........	-327.66
	519	0.104	2.29962E-001	3.26351E-005	0.00000E+000	2.30000E-001	1.14022E-003	7	...........	-327.66
	520	0.1042	2.39925E-001	3.26178E-005	0.00000E+000	2.40000E-001	1.09022E-003	7	...........	-327.66
	521	0.1044	2.49987E-001	3.26001E-005	0.00000E+000	2.50000E-001	1.11522E-003	7	...........	-327.66
	522	0.1046	2.59937E-001	3.25691E-005	0.00000E+000	2.60000E-001	1.19022E-003	7	...........	-327.66
	523	0.1048	2.70125E-001	3.25408E-005	0.00000E+000	2.70000E-001	1.21522E-003	7	...........	-327.66
	524	0.105	2.79937E-001	3.25043E-005	0.00000E+000	2.80000E-001	1.11522E-003	7	...........	-327.66
	525	0.1052	2.90025E-001	3.24603E-005	0.00000E+000	2.90000E-001	1.14022E-003	7	...........	-327.66
	526	0.1054	2.99950E-001	3.24136E-005	0.00000E+000	3.00000E-001	1.21522E-003	7	...........	-327.66
	527	0.1056	3.09937E-001	3.23626E-005	0.00000E+000	3.10000E-001	1.14022E-003	7	...........	-327.66
	528	0.1058	3.19987E-001	3.23053E-005	0.00000E+000	3.20000E-001	1.11522E-003	7	...........	-327.66
	529	0.106	3.29950E-001	3.22450E-005	0.00000E+000	3.30000E-001	1.24022E-003	7	...........	-327.66
	530	0.1062	3.39975E-001	3.21815E-005	0.00000E+000	3.40000E-001	1.24022E-003	7	...........	-327.66
	531	0.1064	3.50137E-001	3.21160E-005	0.00000E+000	3.50000E-001	1.19022E-003	7	...........	-327.66
	532	0.1066	3.59900E-001	3.20460E-005	0.00000E+000	3.60000E-001	1.24022E-003	7	...........	-327.66
	533	0.1068	3.70025E-001	3.19748E-005	0.00000E+000	3.70000E-001	1.29022E-003	7	...........	-327.66
	534	0.107	3.79962E-001	3.19027E-005	0.00000E+000	3.80000E-001	1.19022E-003	7	...........	-327.66
	535	0.1072	3.89912E-001	3.18252E-005	0.00000E+000	3.90000E-001	1.14022E-003	7	...........	-327.66
	536	0.1074	3.99950E-001	3.17487E-005	0.00000E+000	4.00000E-001	1.06522E-003	7	...........	-327.66
	537	0.1076	4.09862E-001	3.16672E-005	0.00000E+000	4.10000E-001	9.90224E-004	7	...........	-327.66
	538	0.1078	4.20000E-001	3.15880E-005	0.00000E+000	4.20000E-001	1.09022E-003	7	...........	-327.66
	539	0.108	4.30025E-001	3.15064E-005	0.00000E+000	4.30000E-001	1.01522E-003	7	...........	-327.66
	540	0.1082	4.39962E-001	3.14232E-005	0.00000E+000	4.40000E-001	1.09022E-003	7	...........	-327.66
	541	0.1084	4.50087E-001	3.13414E-005	0.00000E+000	4.50000E-001	1.19022E-003	7	...........	-327.66
	542	0.1086	4.59950E-001	3.12614E-005	0.00000E+000	4.60000E-001	1.11522E-003	7	...........	-327.66
	543	0.1088	4.69987E-001	3.11827E-005	0.00000E+000	4.70000E-001	9.90224E-004	7	...........	-327.66
	544	0.109	4.79987E-001	3.11019E-005	0.00000E+000	4.80000E-001	1.16522E-003	7	...........	-327.66
	545	0.1092	4.89962E-001	3.10261E-005	0.00000E+000	4.90000E-001	1.14022E-003	7	...........	-327.66
	546	0.1094	5.00000E-001	3.09516E-005	0.00000E+000	5.00000E-001	1.19022E-003	7	...........	-327.66
	547	0.1096	5.09887E-001	3.08754E-005	0.00000E+000	5.10000E-001	1.09022E-003	7	...........	-327.66
	548	0.1098	5.19887E-001	3.08089E-005	0.00000E+000	5.20000E-001	1.06522E-003	7	...........	-327.66
	549	0.11	5.30050E-001	3.07433E-005	0.00000E+000	5.30000E-001	1.11522E-003	7	...........	-327.66
	550	0.1102	5.39987E-001	3.06758E-005	0.00000E+000	5.40000E-001	1.14022E-003	7	...........	-327.66
	551	0.1104	5.49987E-001	3.06198E-005	0.00000E+000	5.50000E-001	1.04022E-003	7	...........	-327.66
	552	0.1106	5.59937E-001	3.05636E-005	0.00000E+000	5.60000E-001	1.09022E-003	7	...........	-327.66
	553	0.1108	5.69875E-001	3.05126E-005	0.00000E+000	5.70000E-001	1.04022E-003	7	...........	-327.66
	554	0.111	5.79925E-001	3.04638E-005	0.00000E+000	5.80000E-001	1.11522E-003	7	...........	-327.66
	555	0.1112	5.89937E-001	3.04275E-005	0.00000E+000	5.90000E-001	1.16522E-003	7	...........	-327.66
	556	0.1114	5.99937E-001	3.03925E-005	0.00000E+000	6.00000E-001	1.11522E-003	7	...........	-327.66
CURVE3	TABLE
	Pt	T	Vf	Im	Vu	Sig	Ach	IERange	Over	Temp
	#	s	V vs. Ref.	A	V	V	V	#	bits	deg C
	557	0.1116	5.89987E-001	2.76734E-005	0.00000E+000	5.90000E-001	1.21522E-003	7	...........	-327.66
	558	0.1118	5.79987E-001	2.51273E-005	0.00000E+000	5.80000E-001	9.40224E-004	7	...........	-327.66
	559	0.112	5.69962E-001	2.30025E-005	0.00000E+000	5.70000E-001	1.04022E-003	7	...........	-327.66
	560	0.1122	5.59937E-001	2.11578E-005	0.00000E+000	5.60000E-001	1.14022E-003	7	...........	-327.66
	561	0.1124	5.50062E-001	1.95173E-005	0.00000E+000	5.50000E-001	1.19022E-003	7	...........	-327.66
	562	0.1126	5.39962E-001	1.80276E-005	0.00000E+000	5.40000E-001	1.01522E-003	7	...........	-327.66
	563	0.1128	5.29975E-001	1.66642E-005	0.00000E+000	5.30000E-001	1.14022E-003	7	...........	-327.66
	564	0.113	5.19950E-001	1.53898E-005	0.00000E+000	5.20000E-001	1.24022E-003	7	...........	-327.66
	565	0.1132	5.10012E-001	1.41996E-005	0.00000E+000	5.10000E-001	1.19022E-003	7	...........	-327.66
	566	0.1134	5.00000E-001	1.30834E-005	0.00000E+000	5.00000E-001	1.14022E-003	7	...........	-327.66
	567	0.1136	4.89987E-001	1.20208E-005	0.00000E+000	4.90000E-001	1.14022E-003	7	...........	-327.66
	568	0.1138	4.80012E-001	1.10204E-005	0.00000E+000	4.80000E-001	1.14022E-003	7	...........	-327.66
	569	0.114	4.69950E-001	1.00598E-005	0.00000E+000	4.70000E-001	1.16522E-003	7	...........	-327.66
	570	0.1142	4.59987E-001	9.14440E-006	0.00000E+000	4.60000E-001	1.01522E-003	7	...........	-327.66
	571	0.1144	4.50175E-001	8.26553E-006	0.00000E+000	4.50000E-001	1.06522E-003	7	...........	-327.66
	572	0.1146	4.39912E-001	7.42142E-006	0.00000E+000	4.40000E-001	1.19022E-003	7	...........	-327.66
	573	0.1148	4.29987E-001	6.60480E-006	0.00000E+000	4.30000E-001	1.24022E-003	7	...........	-327.66
	574	0.115	4.19975E-001	5.81695E-006	0.00000E+000	4.20000E-001	1.11522E-003	7	...........	-327.66
	575	0.1152	4.09987E-001	5.05559E-006	0.00000E+000	4.10000E-001	1.19022E-003	7	...........	-327.66
	576	0.1154	3.99962E-001	4.32274E-006	0.00000E+000	4.00000E-001	1.24022E-003	7	...........	-327.66
	577	0.1156	3.89962E-001	3.60114E-006	0.00000E+000	3.90000E-001	1.11522E-003	7	...........	-327.66
	578	0.1158	3.80175E-001	2.91180E-006	0.00000E+000	3.80000E-001	1.04022E-003	7	...........	-327.66
	579	0.116	3.70000E-001	2.23771E-006	0.00000E+000	3.70000E-001	1.01522E-003	7	...........	-327.66
	580	0.1162	3.59987E-001	1.57562E-006	0.00000E+000	3.60000E-001	1.09022E-003	7	...........	-327.66
	581	0.1164	3.50162E-001	9.39782E-007	0.00000E+000	3.50000E-001	1.11522E-003	7	...........	-327.66
	582	0.1166	3.39937E-001	3.18197E-007	0.00000E+000	3.40000E-001	1.19022E-003	7	...........	-327.66
	583	0.1168	3.30237E-001	-2.94636E-007	0.00000E+000	3.30000E-001	1.11522E-003	7	...........	-327.66
	584	0.117	3.20025E-001	-8.92468E-007	0.00000E+000	3.20000E-001	1.01522E-003	7	...........	-327.66
	585	0.1172	3.10112E-001	-1.47105E-006	0.00000E+000	3.10000E-001	1.11522E-003	7	...........	-327.66
	586	0.1174	2.99962E-001	-2.04713E-006	0.00000E+000	3.00000E-001	1.01522E-003	7	...........	-327.66
	587	0.1176	2.90162E-001	-2.59820E-006	0.00000E+000	2.90000E-001	1.29022E-003	7	...........	-327.66
	588	0.1178	2.79950E-001	-3.15053E-006	0.00000E+000	2.80000E-001	1.29022E-003	7	...........	-327.66
	589	0.118	2.70300E-001	-3.68610E-006	0.00000E+000	2.70000E-001	1.16522E-003	7	...........	-327.66
	590	0.1182	2.60062E-001	-4.21642E-006	0.00000E+000	2.60000E-001	1.09022E-003	7	...........	-327.66
	591	0.1184	2.50250E-001	-4.73349E-006	0.00000E+000	2.50000E-001	1.04022E-003	7	...........	-327.66
	592	0.1186	2.40125E-001	-5.24256E-006	0.00000E+000	2.40000E-001	9.90224E-004	7	...........	-327.66
	593	0.1188	2.29987E-001	-5.74388E-006	0.00000E+000	2.30000E-001	1.01522E-003	7	...........	-327.66
	594	0.119	2.20037E-001	-6.24020E-006	0.00000E+000	2.20000E-001	1.06522E-003	7	...........	-327.66
	595	0.1192	2.10075E-001	-6.72476E-006	0.00000E+000	2.10000E-001	1.06522E-003	7	...........	-327.66
	596	0.1194	2.00050E-001	-7.20183E-006	0.00000E+000	2.00000E-001	1.19022E-003	7	...........	-327.66
	597	0.1196	1.90125E-001	-7.67364E-006	0.00000E+000	1.90000E-001	1.24022E-003	7	...........	-327.66
	598	0.1198	1.80050E-001	-8.13946E-006	0.00000E+000	1.80000E-001	1.21522E-003	7	...........	-327.66
	599	0.12	1.70287E-001	-8.60152E-006	0.00000E+000	1.70000E-001	1.24022E-003	7	...........	-327.66
	600	0.1202	1.60125E-001	-9.05358E-006	0.00000E+000	1.60000E-001	1.21522E-003	7	...........	-327.66
	601	0.1204	1.50187E-001	-9.50214E-006	0.00000E+000	1.50000E-001	1.14022E-003	7	...........	-327.66
	602	0.1206	1.40125E-001	-9.94570E-006	0.00000E+000	1.40000E-001	1.29022E-003	7	...........	-327.66
	603	0.1208	1.30200E-001	-1.03803E-005	0.00000E+000	1.30000E-001	1.11522E-003	7	...........	-327.66
	604	0.121	1.20125E-001	-1.08166E-005	0.00000E+000	1.20000E-001	1.21522E-003	7	...........	-327.66
	605	0.1212	1.10187E-001	-1.12429E-005	0.00000E+000	1.10000E-001	1.29022E-003	7	...........	-327.66
	606	0.1214	1.00112E-001	-1.16702E-005	0.00000E+000	1.00000E-001	1.04022E-003	7	...........	-327.66
	607	0.1216	9.01998E-002	-1.20892E-005	0.00000E+000	9.00000E-002	1.24022E-003	7	...........	-327.66
	608	0.1218	8.01248E-002	-1.25086E-005	0.00000E+000	8.00000E-002	1.21522E-003	7	...........	-327.66
	609	0.122	7.02373E-002	-1.29224E-005	0.00000E+000	7.00000E-002	1.11522E-003	7	...........	-327.66
	610	0.1222	6.00748E-002	-1.33294E-005	0.00000E+000	6.00000E-002	1.09022E-003	7	...........	-327.66
	611	0.1224	5.02373E-002	-1.37355E-005	0.00000E+000	5.00000E-002	1.06522E-003	7	...........	-327.66
	612	0.1226	4.00623E-002	-1.41405E-005	0.00000E+000	4.00000E-002	1.19022E-003	7	...........	-327.66
	613	0.1228	3.02123E-002	-1.45411E-005	0.00000E+000	3.00000E-002	1.06522E-003	7	...........	-327.66
	614	0.123	2.01123E-002	-1.49389E-005	0.00000E+000	2.00000E-002	1.11522E-003	7	...........	-327.66
	615	0.1232	1.02248E-002	-1.53349E-005	0.00000E+000	9.99999E-003	1.16522E-003	7	...........	-327.66
	616	0.1234	1.87312E-004	-1.57207E-005	0.00000E+000	-1.49012E-008	1.14022E-003	7	...........	-327.66
	617	0.1236	-9.85019E-003	-1.61128E-005	0.00000E+000	-1.00000E-002	1.16522E-003	7	...........	-327.66
	618	0.1238	-1.98627E-002	-1.65023E-005	0.00000E+000	-2.00000E-002	1.09022E-003	7	...........	-327.66
	619	0.124	-2.98002E-002	-1.68886E-005	0.00000E+000	-3.00000E-002	1.29022E-003	7	...........	-327.66
	620	0.1242	-3.97877E-002	-1.72712E-005	0.00000E+000	-4.00000E-002	1.21522E-003	7	...........	-327.66
	621	0.1244	-4.97752E-002	-1.76495E-005	0.00000E+000	-5.00000E-002	1.21522E-003	7	...........	-327.66
	622	0.1246	-6.00002E-002	-1.80263E-005	0.00000E+000	-6.00000E-002	1.14022E-003	7	...........	-327.66
	623	0.1248	-6.97377E-002	-1.84049E-005	0.00000E+000	-7.00000E-002	1.09022E-003	7	...........	-327.66
	624	0.125	-7.97502E-002	-1.87779E-005	0.00000E+000	-8.00000E-002	1.11522E-003	7	...........	-327.66
	625	0.1252	-8.98002E-002	-1.91505E-005	0.00000E+000	-9.00000E-002	1.09022E-003	7	...........	-327.66
	626	0.1254	-9.99377E-002	-1.95225E-005	0.00000E+000	-1.00000E-001	1.14022E-003	7	...........	-327.66
	627	0.1256	-1.09725E-001	-1.98893E-005	0.00000E+000	-1.10000E-001	1.14022E-003	7	...........	-327.66
	628	0.1258	-1.19888E-001	-2.02564E-005	0.00000E+000	-1.20000E-001	1.14022E-003	7	...........	-327.66
	629	0.126	-1.29838E-001	-2.06242E-005	0.00000E+000	-1.30000E-001	9.65224E-004	7	...........	-327.66
	630	0.1262	-1.39788E-001	-2.09825E-005	0.00000E+000	-1.40000E-001	1.09022E-003	7	...........	-327.66
	631	0.1264	-1.49825E-001	-2.13455E-005	0.00000E+000	-1.50000E-001	9.65224E-004	7	...........	-327.66
	632	0.1266	-1.59950E-001	-2.17046E-005	0.00000E+000	-1.60000E-001	1.01522E-003	7	...........	-327.66
	633	0.1268	-1.69788E-001	-2.20619E-005	0.00000E+000	-1.70000E-001	1.19022E-003	7	...........	-327.66
	634	0.127	-1.79863E-001	-2.24192E-005	0.00000E+000	-1.80000E-001	1.19022E-003	7	...........	-327.66
	635	0.1272	-1.89638E-001	-2.27680E-005	0.00000E+000	-1.90000E-001	1.21522E-003	7	...........	-327.66
	636	0.1274	-1.99763E-001	-2.31212E-005	0.00000E+000	-2.00000E-001	1.14022E-003	7	...........	-327.66
	637	0.1276	-2.09725E-001	-2.34728E-005	0.00000E+000	-2.10000E-001	1.06522E-003	7	...........	-327.66
	638	0.1278	-2.19813E-001	-2.38208E-005	0.00000E+000	-2.20000E-001	9.65224E-004	7	...........	-327.66
	639	0.128	-2.29750E-001	-2.41674E-005	0.00000E+000	-2.30000E-001	1.11522E-003	7	...........	-327.66
	640	0.1282	-2.39725E-001	-2.45122E-005	0.00000E+000	-2.40000E-001	1.14022E-003	7	...........	-327.66
	641	0.1284	-2.49775E-001	-2.48565E-005	0.00000E+000	-2.50000E-001	1.16522E-003	7	...........	-327.66
	642	0.1286	-2.59738E-001	-2.51923E-005	0.00000E+000	-2.60000E-001	1.16522E-003	7	...........	-327.66
	643	0.1288	-2.69638E-001	-2.55313E-005	0.00000E+000	-2.70000E-001	1.11522E-003	7	...........	-327.66
	644	0.129	-2.79838E-001	-2.58666E-005	0.00000E+000	-2.80000E-001	1.16522E-003	7	...........	-327.66
	645	0.1292	-2.89738E-001	-2.61999E-005	0.00000E+000	-2.90000E-001	9.40224E-004	7	...........	-327.66
	646	0.1294	-2.99788E-001	-2.65290E-005	0.00000E+000	-3.00000E-001	1.11522E-003	7	...........	-327.66
	647	0.1296	-3.09713E-001	-2.68568E-005	0.00000E+000	-3.10000E-001	1.24022E-003	7	...........	-327.66
	648	0.1298	-3.19800E-001	-2.71851E-005	0.00000E+000	-3.20000E-001	1.14022E-003	7	...........	-327.66
	649	0.13	-3.29763E-001	-2.75088E-005	0.00000E+000	-3.30000E-001	1.09022E-003	7	...........	-327.66
	650	0.1302	-3.39738E-001	-2.78304E-005	0.00000E+000	-3.40000E-001	1.21522E-003	7	...........	-327.66
	651	0.1304	-3.49725E-001	-2.81452E-005	0.00000E+000	-3.50000E-001	1.14022E-003	7	...........	-327.66
	652	0.1306	-3.59800E-001	-2.84585E-005	0.00000E+000	-3.60000E-001	1.16522E-003	7	...........	-327.66
	653	0.1308	-3.69650E-001	-2.87748E-005	0.00000E+000	-3.70000E-001	1.16522E-003	7	...........	-327.66
	654	0.131	-3.79700E-001	-2.90803E-005	0.00000E+000	-3.80000E-001	1.29022E-003	7	...........	-327.66
	655	0.1312	-3.89663E-001	-2.93866E-005	0.00000E+000	-3.90000E-001	1.16522E-003	7	...........	-327.66
	656	0.1314	-3.99775E-001	-2.96851E-005	0.00000E+000	-4.00000E-001	1.11522E-003	7	...........	-327.66
	657	0.1316	-4.09713E-001	-2.99859E-005	0.00000E+000	-4.10000E-001	1.14022E-003	7	...........	-327.66
	658	0.1318	-4.19813E-001	-3.02800E-005	0.00000E+000	-4.20000E-001	1.29022E-003	7	...........	-327.66
	659	0.132	-4.29713E-001	-3.05758E-005	0.00000E+000	-4.30000E-001	1.09022E-003	7	...........	-327.66
	660	0.1322	-4.39763E-001	-3.08651E-005	0.00000E+000	-4.40000E-001	1.21522E-003	7	...........	-327.66
	661	0.1324	-4.49638E-001	-3.11468E-005	0.00000E+000	-4.50000E-001	1.21522E-003	7	...........	-327.66
	662	0.1326	-4.59763E-001	-3.14271E-005	0.00000E+000	-4.60000E-001	1.14022E-003	7	...........	-327.66
	663	0.1328	-4.69700E-001	-3.17052E-005	0.00000E+000	-4.70000E-001	1.29022E-003	7	...........	-327.66
	664	0.133	-4.79638E-001	-3.19772E-005	0.00000E+000	-4.80000E-001	1.16522E-003	7	...........	-327.66
	665	0.1332	-4.89688E-001	-3.22475E-005	0.00000E+000	-4.90000E-001	1.09022E-003	7	...........	-327.66
	666	0.1334	-4.99713E-001	-3.25123E-005	0.00000E+000	-5.00000E-001	1.11522E-003	7	...........	-327.66
	667	0.1336	-5.09650E-001	-3.27741E-005	0.00000E+000	-5.10000E-001	1.29022E-003	7	...........	-327.66
	668	0.1338	-5.19713E-001	-3.30311E-005	0.00000E+000	-5.20000E-001	1.11522E-003	7	...........	-327.66
	669	0.134	-5.29725E-001	-3.32864E-005	0.00000E+000	-5.30000E-001	1.19022E-003	7	...........	-327.66
	670	0.1342	-5.39675E-001	-3.35252E-005	0.00000E+000	-5.40000E-001	1.16522E-003	7	...........	-327.66
	671	0.1344	-5.49613E-001	-3.37767E-005	0.00000E+000	-5.50000E-001	1.29022E-003	7	...........	-327.66
	672	0.1346	-5.59688E-001	-3.40150E-005	0.00000E+000	-5.60000E-001	1.11522E-003	7	...........	-327.66
	673	0.1348	-5.69713E-001	-3.42515E-005	0.00000E+000	-5.70000E-001	1.14022E-003	7	...........	-327.66
	674	0.135	-5.79688E-001	-3.44818E-005	0.00000E+000	-5.80000E-001	1.11522E-003	7	...........	-327.66
	675	0.1352	-5.89663E-001	-3.47088E-005	0.00000E+000	-5.90000E-001	1.14022E-003	7	...........	-327.66
	676	0.1354	-5.99738E-001	-3.49281E-005	0.00000E+000	-6.00000E-001	1.19022E-003	7	...........	-327.66
	677	0.1356	-6.09675E-001	-3.51411E-005	0.00000E+000	-6.10000E-001	1.19022E-003	7	...........	-327.66
	678	0.1358	-6.19638E-001	-3.53472E-005	0.00000E+000	-6.20000E-001	1.04022E-003	7	...........	-327.66
	679	0.136	-6.29600E-001	-3.55527E-005	0.00000E+000	-6.30000E-001	1.04022E-003	7	...........	-327.66
	680	0.1362	-6.39688E-001	-3.57547E-005	0.00000E+000	-6.40000E-001	1.11522E-003	7	...........	-327.66
	681	0.1364	-6.49650E-001	-3.59432E-005	0.00000E+000	-6.50000E-001	9.65224E-004	7	...........	-327.66
	682	0.1366	-6.59650E-001	-3.61323E-005	0.00000E+000	-6.60000E-001	1.01522E-003	7	...........	-327.66
	683	0.1368	-6.69638E-001	-3.63150E-005	0.00000E+000	-6.70000E-001	1.01522E-003	7	...........	-327.66
	684	0.137	-6.79613E-001	-3.64891E-005	0.00000E+000	-6.80000E-001	1.09022E-003	7	...........	-327.66
	685	0.1372	-6.89688E-001	-3.66558E-005	0.00000E+000	-6.90000E-001	1.09022E-003	7	...........	-327.66
	686	0.1374	-6.99650E-001	-3.68211E-005	0.00000E+000	-7.00000E-001	1.09022E-003	7	...........	-327.66
	687	0.1376	-7.09650E-001	-3.69731E-005	0.00000E+000	-7.10000E-001	1.06522E-003	7	...........	-327.66
	688	0.1378	-7.19675E-001	-3.71212E-005	0.00000E+000	-7.20000E-001	1.11522E-003	7	...........	-327.66
	689	0.138	-7.29638E-001	-3.72609E-005	0.00000E+000	-7.30000E-001	1.14022E-003	7	...........	-327.66
	690	0.1382	-7.39775E-001	-3.73894E-005	0.00000E+000	-7.40000E-001	1.04022E-003	7	...........	-327.66
	691	0.1384	-7.49650E-001	-3.75130E-005	0.00000E+000	-7.50000E-001	1.09022E-003	7	...........	-327.66
	692	0.1386	-7.59675E-001	-3.76267E-005	0.00000E+000	-7.60000E-001	1.14022E-003	7	...........	-327.66
	693	0.1388	-7.69688E-001	-3.77272E-005	0.00000E+000	-7.70000E-001	1.09022E-003	7	...........	-327.66
	694	0.139	-7.79538E-001	-3.78200E-005	0.00000E+000	-7.80000E-001	1.04022E-003	7	...........	-327.66
	695	0.1392	-7.89688E-001	-3.79013E-005	0.00000E+000	-7.90000E-001	1.04022E-003	7	...........	-327.66
	696	0.1394	-7.99588E-001	-3.79720E-005	0.00000E+000	-8.00000E-001	1.04022E-003	7	...........	-327.66
	697	0.1396	-8.09600E-001	-3.80248E-005	0.00000E+000	-8.10000E-001	1.04022E-003	7	...........	-327.66
	698	0.1398	-8.19725E-001	-3.80710E-005	0.00000E+000	-8.20000E-001	1.11522E-003	7	...........	-327.66
	699	0.14	-8.29563E-001	-3.80970E-005	0.00000E+000	-8.30000E-001	1.14022E-003	7	...........	-327.66
	700	0.1402	-8.39650E-001	-3.81093E-005	0.00000E+000	-8.40000E-001	1.14022E-003	7	...........	-327.66
	701	0.1404	-8.49700E-001	-3.81025E-005	0.00000E+000	-8.50000E-001	1.04022E-003	7	...........	-327.66
	702	0.1406	-8.59663E-001	-3.80788E-005	0.00000E+000	-8.60000E-001	1.04022E-003	7	...........	-327.66
	703	0.1408	-8.69613E-001	-3.80418E-005	0.00000E+000	-8.70000E-001	1.24022E-003	7	...........	-327.66
	704	0.141	-8.79563E-001	-3.79760E-005	0.00000E+000	-8.80000E-001	1.01522E-003	7	...........	-327.66
	705	0.1412	-8.89688E-001	-3.78900E-005	0.00000E+000	-8.90000E-001	1.06522E-003	7	...........	-327.66
	706	0.1414	-8.99700E-001	-3.77787E-005	0.00000E+000	-9.00000E-001	1.06522E-003	7	...........	-327.66
	707	0.1416	-8.89725E-001	-3.53122E-005	0.00000E+000	-8.90000E-001	1.06522E-003	7	...........	-327.66
	708	0.1418	-8.79663E-001	-3.27903E-005	0.00000E+000	-8.80000E-001	1.09022E-003	7	...........	-327.66
	709	0.142	-8.69700E-001	-3.05395E-005	0.00000E+000	-8.70000E-001	1.01522E-003	7	...........	-327.66
	710	0.1422	-8.59663E-001	-2.84880E-005	0.00000E+000	-8.60000E-001	1.19022E-003	7	...........	-327.66
	711	0.1424	-8.49738E-001	-2.65862E-005	0.00000E+000	-8.50000E-001	1.14022E-003	7	...........	-327.66
	712	0.1426	-8.39725E-001	-2.48002E-005	0.00000E+000	-8.40000E-001	1.29022E-003	7	...........	-327.66
	713	0.1428	-8.29725E-001	-2.31132E-005	0.00000E+000	-8.30000E-001	1.16522E-003	7	...........	-327.66
	714	0.143	-8.19838E-001	-2.15170E-005	0.00000E+000	-8.20000E-001	1.14022E-003	7	...........	-327.66
	715	0.1432	-8.09675E-001	-1.99916E-005	0.00000E+000	-8.10000E-001	9.65224E-004	7	...........	-327.66
	716	0.1434	-7.99800E-001	-1.85396E-005	0.00000E+000	-8.00000E-001	1.04022E-003	7	...........	-327.66
	717	0.1436	-7.89650E-001	-1.71477E-005	0.00000E+000	-7.90000E-001	1.11522E-003	7	...........	-327.66
	718	0.1438	-7.79650E-001	-1.58150E-005	0.00000E+000	-7.80000E-001	1.29022E-003	7	...........	-327.66
	719	0.144	-7.69750E-001	-1.45423E-005	0.00000E+000	-7.70000E-001	1.14022E-003	7	...........	-327.66
	720	0.1442	-7.59800E-001	-1.33142E-005	0.00000E+000	-7.60000E-001	1.11522E-003	7	...........	-327.66
	721	0.1444	-7.49650E-001	-1.21398E-005	0.00000E+000	-7.50000E-001	1.16522E-003	7	...........	-327.66
	722	0.1446	-7.39788E-001	-1.10121E-005	0.00000E+000	-7.40000E-001	1.11522E-003	7	...........	-327.66
	723	0.1448	-7.29738E-001	-9.92420E-006	0.00000E+000	-7.30000E-001	1.19022E-003	7	...........	-327.66
	724	0.145	-7.19838E-001	-8.88356E-006	0.00000E+000	-7.20000E-001	1.01522E-003	7	...........	-327.66
	725	0.1452	-7.09713E-001	-7.87667E-006	0.00000E+000	-7.10000E-001	1.29022E-003	7	...........	-327.66
	726	0.1454	-6.99800E-001	-6.91104E-006	0.00000E+000	-7.00000E-001	9.90224E-004	7	...........	-327.66
	727	0.1456	-6.89763E-001	-5.98016E-006	0.00000E+000	-6.90000E-001	1.16522E-003	7	...........	-327.66
	728	0.1458	-6.79788E-001	-5.08279E-006	0.00000E+000	-6.80000E-001	1.19022E-003	7	...........	-327.66
	729	0.146	-6.69663E-001	-4.21517E-006	0.00000E+000	-6.70000E-001	1.01522E-003	7	...........	-327.66
	730	0.1462	-6.59813E-001	-3.37506E-006	0.00000E+000	-6.60000E-001	1.19022E-003	7	...........	-327.66
	731	0.1464	-6.49713E-001	-2.56270E-006	0.00000E+000	-6.50000E-001	1.16522E-003	7	...........	-327.66
	732	0.1466	-6.39875E-001	-1.77559E-006	0.00000E+000	-6.40000E-001	1.21522E-003	7	...........	-327.66
	733	0.1468	-6.29725E-001	-1.00798E-006	0.00000E+000	-6.30000E-001	1.19022E-003	7	...........	-327.66
	734	0.147	-6.19850E-001	-2.65132E-007	0.00000E+000	-6.20000E-001	1.21522E-003	7	...........	-327.66
	735	0.1472	-6.09963E-001	4.63217E-007	0.00000E+000	-6.10000E-001	1.21522E-003	7	...........	-327.66
	736	0.1474	-5.99963E-001	1.17806E-006	0.00000E+000	-6.00000E-001	1.29022E-003	7	...........	-327.66
	737	0.1476	-5.89988E-001	1.87566E-006	0.00000E+000	-5.90000E-001	1.14022E-003	7	...........	-327.66
	738	0.1478	-5.79800E-001	2.56375E-006	0.00000E+000	-5.80000E-001	1.16522E-003	7	...........	-327.66
	739	0.148	-5.69888E-001	3.24135E-006	0.00000E+000	-5.70000E-001	1.09022E-003	7	...........	-327.66
	740	0.1482	-5.59963E-001	3.91069E-006	0.00000E+000	-5.60000E-001	1.19022E-003	7	...........	-327.66
	741	0.1484	-5.49825E-001	4.57528E-006	0.00000E+000	-5.50000E-001	1.06522E-003	7	...........	-327.66
	742	0.1486	-5.40013E-001	5.23312E-006	0.00000E+000	-5.40000E-001	1.06522E-003	7	...........	-327.66
	743	0.1488	-5.30000E-001	5.88246E-006	0.00000E+000	-5.30000E-001	1.16522E-003	7	...........	-327.66
	744	0.149	-5.20038E-001	6.53754E-006	0.00000E+000	-5.20000E-001	1.09022E-003	7	...........	-327.66
	745	0.1492	-5.09988E-001	7.19063E-006	0.00000E+000	-5.10000E-001	1.09022E-003	7	...........	-327.66
	746	0.1494	-4.99788E-001	7.84247E-006	0.00000E+000	-5.00000E-001	1.29022E-003	7	...........	-327.66
	747	0.1496	-4.90013E-001	8.50081E-006	0.00000E+000	-4.90000E-001	1.19022E-003	7	...........	-327.66
	748	0.1498	-4.79950E-001	9.15140E-006	0.00000E+000	-4.80000E-001	1.24022E-003	7	...........	-327.66
	749	0.15	-4.69863E-001	9.80949E-006	0.00000E+000	-4.70000E-001	1.26522E-003	7	...........	-327.66
	750	0.1502	-4.60000E-001	1.04703E-005	0.00000E+000	-4.60000E-001	1.09022E-003	7	...........	-327.66
	751	0.1504	-4.49938E-001	1.11349E-005	0.00000E+000	-4.50000E-001	1.04022E-003	7	...........	-327.66
	752	0.1506	-4.39988E-001	1.17968E-005	0.00000E+000	-4.40000E-001	1.19022E-003	7	...........	-327.66
	753	0.1508	-4.29888E-001	1.24659E-005	0.00000E+000	-4.30000E-001	1.21522E-003	7	...........	-327.66
	754	0.151	-4.20025E-001	1.31394E-005	0.00000E+000	-4.20000E-001	1.14022E-003	7	...........	-327.66
	755	0.1512	-4.09963E-001	1.38058E-005	0.00000E+000	-4.10000E-001	1.19022E-003	7	...........	-327.66
	756	0.1514	-3.99950E-001	1.44786E-005	0.00000E+000	-4.00000E-001	1.24022E-003	7	...........	-327.66
	757	0.1516	-3.89925E-001	1.51522E-005	0.00000E+000	-3.90000E-001	1.14022E-003	7	...........	-327.66
	758	0.1518	-3.80000E-001	1.58183E-005	0.00000E+000	-3.80000E-001	1.24022E-003	7	...........	-327.66
	759	0.152	-3.69900E-001	1.64872E-005	0.00000E+000	-3.70000E-001	1.01522E-003	7	...........	-327.66
	760	0.1522	-3.60063E-001	1.71495E-005	0.00000E+000	-3.60000E-001	1.29022E-003	7	...........	-327.66
	761	0.1524	-3.49988E-001	1.78096E-005	0.00000E+000	-3.50000E-001	1.19022E-003	7	...........	-327.66
	762	0.1526	-3.40038E-001	1.84617E-005	0.00000E+000	-3.40000E-001	1.19022E-003	7	...........	-327.66
	763	0.1528	-3.30038E-001	1.91103E-005	0.00000E+000	-3.30000E-001	1.04022E-003	7	...........	-327.66
	764	0.153	-3.20088E-001	1.97378E-005	0.00000E+000	-3.20000E-001	1.11522E-003	7	...........	-327.66
	765	0.1532	-3.09963E-001	2.03624E-005	0.00000E+000	-3.10000E-001	1.14022E-003	7	...........	-327.66
	766	0.1534	-3.00013E-001	2.09775E-005	0.00000E+000	-3.00000E-001	1.11522E-003	7	...........	-327.66
	767	0.1536	-2.89963E-001	2.15713E-005	0.00000E+000	-2.90000E-001	1.11522E-003	7	...........	-327.66
	768	0.1538	-2.80063E-001	2.21584E-005	0.00000E+000	-2.80000E-001	1.04022E-003	7	...........	-327.66
	769	0.154	-2.69913E-001	2.27212E-005	0.00000E+000	-2.70000E-001	1.16522E-003	7	...........	-327.66
	770	0.1542	-2.60000E-001	2.32713E-005	0.00000E+000	-2.60000E-001	1.14022E-003	7	...........	-327.66
	771	0.1544	-2.49950E-001	2.38081E-005	0.00000E+000	-2.50000E-001	1.14022E-003	7	...........	-327.66
	772	0.1546	-2.40000E-001	2.43237E-005	0.00000E+000	-2.40000E-001	1.09022E-003	7	...........	-327.66
	773	0.1548	-2.30038E-001	2.48183E-005	0.00000E+000	-2.30000E-001	1.01522E-003	7	...........	-327.66
	774	0.155	-2.20013E-001	2.52981E-005	0.00000E+000	-2.20000E-001	1.11522E-003	7	...........	-327.66
	775	0.1552	-2.09888E-001	2.57612E-005	0.00000E+000	-2.10000E-001	1.19022E-003	7	...........	-327.66
	776	0.1554	-1.99975E-001	2.62005E-005	0.00000E+000	-2.00000E-001	1.14022E-003	7	...........	-327.66
	777	0.1556	-1.90063E-001	2.66273E-005	0.00000E+000	-1.90000E-001	1.14022E-003	7	...........	-327.66
	778	0.1558	-1.80063E-001	2.70268E-005	0.00000E+000	-1.80000E-001	1.14022E-003	7	...........	-327.66
	779	0.156	-1.70038E-001	2.74156E-005	0.00000E+000	-1.70000E-001	9.65224E-004	7	...........	-327.66
	780	0.1562	-1.60063E-001	2.77842E-005	0.00000E+000	-1.60000E-001	1.21522E-003	7	...........	-327.66
	781	0.1564	-1.50013E-001	2.81325E-005	0.00000E+000	-1.50000E-001	9.90224E-004	7	...........	-327.66
	782	0.1566	-1.39963E-001	2.84643E-005	0.00000E+000	-1.40000E-001	1.19022E-003	7	...........	-327.66
	783	0.1568	-1.30013E-001	2.87851E-005	0.00000E+000	-1.30000E-001	1.14022E-003	7	...........	-327.66
	784	0.157	-1.20025E-001	2.90884E-005	0.00000E+000	-1.20000E-001	1.21522E-003	7	...........	-327.66
	785	0.1572	-1.10100E-001	2.93802E-005	0.00000E+000	-1.10000E-001	1.04022E-003	7	...........	-327.66
	786	0.1574	-1.00025E-001	2.96487E-005	0.00000E+000	-1.00000E-001	1.09022E-003	7	...........	-327.66
	787	0.1576	-9.00377E-002	2.99062E-005	0.00000E+000	-9.00000E-002	1.19022E-003	7	...........	-327.66
	788	0.1578	-8.00627E-002	3.01500E-005	0.00000E+000	-8.00000E-002	1.11522E-003	7	...........	-327.66
	789	0.158	-7.00002E-002	3.03815E-005	0.00000E+000	-7.00000E-002	1.09022E-003	7	...........	-327.66
	790	0.1582	-6.00252E-002	3.05981E-005	0.00000E+000	-6.00000E-002	1.19022E-003	7	...........	-327.66
	791	0.1584	-5.01127E-002	3.08086E-005	0.00000E+000	-5.00000E-002	1.11522E-003	7	...........	-327.66
	792	0.1586	-4.00002E-002	3.10026E-005	0.00000E+000	-4.00000E-002	1.16522E-003	7	...........	-327.66
	793	0.1588	-2.99127E-002	3.11882E-005	0.00000E+000	-3.00000E-002	1.09022E-003	7	...........	-327.66
	794	0.159	-2.00377E-002	3.13597E-005	0.00000E+000	-2.00000E-002	9.65224E-004	7	...........	-327.66
	795	0.1592	-1.01002E-002	3.15249E-005	0.00000E+000	-1.00000E-002	1.19022E-003	7	...........	-327.66
	796	0.1594	-6.26875E-005	3.16752E-005	0.00000E+000	-1.49012E-008	1.09022E-003	7	...........	-327.66
	797	0.1596	1.00373E-002	3.18232E-005	0.00000E+000	9.99999E-003	1.14022E-003	7	...........	-327.66
	798	0.1598	1.99873E-002	3.19603E-005	0.00000E+000	2.00000E-002	1.19022E-003	7	...........	-327.66
	799	0.16	2.99623E-002	3.20855E-005	0.00000E+000	3.00000E-002	1.14022E-003	7	...........	-327.66
	800	0.1602	4.00123E-002	3.22065E-005	0.00000E+000	4.00000E-002	1.06522E-003	7	...........	-327.66
	801	0.1604	4.99373E-002	3.23228E-005	0.00000E+000	5.00000E-002	1.04022E-003	7	...........	-327.66
	802	0.1606	5.99748E-002	3.24278E-005	0.00000E+000	6.00000E-002	1.14022E-003	7	...........	-327.66
	803	0.1608	7.01373E-002	3.25281E-005	0.00000E+000	7.00000E-002	1.19022E-003	7	...........	-327.66
	804	0.161	7.99373E-002	3.26203E-005	0.00000E+000	8.00000E-002	1.14022E-003	7	...........	-327.66
	805	0.1612	9.01748E-002	3.27044E-005	0.00000E+000	9.00000E-002	1.14022E-003	7	...........	-327.66
	806	0.1614	9.99373E-002	3.27836E-005	0.00000E+000	1.00000E-001	1.04022E-003	7	...........	-327.66
	807	0.1616	1.09950E-001	3.28556E-005	0.00000E+000	1.10000E-001	1.19022E-003	7	...........	-327.66
	808	0.1618	1.19937E-001	3.29241E-005	0.00000E+000	1.20000E-001	1.21522E-003	7	...........	-327.66
	809	0.162	1.30075E-001	3.29791E-005	0.00000E+000	1.30000E-001	1.19022E-003	7	...........	-327.66
	810	0.1622	1.40000E-001	3.30317E-005	0.00000E+000	1.40000E-001	1.19022E-003	7	...........	-327.66
	811	0.1624	1.49987E-001	3.30742E-005	0.00000E+000	1.50000E-001	1.19022E-003	7	...........	-327.66
	812	0.1626	1.59937E-001	3.31057E-005	0.00000E+000	1.60000E-001	1.21522E-003	7	...........	-327.66
	813	0.1628	1.70062E-001	3.31332E-005	0.00000E+000	1.70000E-001	1.14022E-003	7	...........	-327.66
	814	0.163	1.79975E-001	3.31562E-005	0.00000E+000	1.80000E-001	1.24022E-003	7	...........	-327.66
	815	0.1632	1.89925E-001	3.31632E-005	0.00000E+000	1.90000E-001	1.11522E-003	7	...........	-327.66
	816	0.1634	1.99937E-001	3.31702E-005	0.00000E+000	2.00000E-001	1.24022E-003	7	...........	-327.66
	817	0.1636	2.09887E-001	3.31697E-005	0.00000E+000	2.10000E-001	1.19022E-003	7	...........	-327.66
	818	0.1638	2.19937E-001	3.31614E-005	0.00000E+000	2.20000E-001	1.29022E-003	7	...........	-327.66
	819	0.164	2.29912E-001	3.31464E-005	0.00000E+000	2.30000E-001	1.19022E-003	7	...........	-327.66
	820	0.1642	2.39912E-001	3.31239E-005	0.00000E+000	2.40000E-001	1.09022E-003	7	...........	-327.66
	821	0.1644	2.49975E-001	3.30999E-005	0.00000E+000	2.50000E-001	1.11522E-003	7	...........	-327.66
	822	0.1646	2.59937E-001	3.30672E-005	0.00000E+000	2.60000E-001	1.04022E-003	7	...........	-327.66
	823	0.1648	2.70087E-001	3.30322E-005	0.00000E+000	2.70000E-001	1.11522E-003	7	...........	-327.66
	824	0.165	2.79887E-001	3.29881E-005	0.00000E+000	2.80000E-001	9.65224E-004	7	...........	-327.66
	825	0.1652	2.89925E-001	3.29406E-005	0.00000E+000	2.90000E-001	1.14022E-003	7	...........	-327.66
	826	0.1654	2.99937E-001	3.28909E-005	0.00000E+000	3.00000E-001	1.19022E-003	7	...........	-327.66
	827	0.1656	3.10000E-001	3.28319E-005	0.00000E+000	3.10000E-001	1.29022E-003	7	...........	-327.66
	828	0.1658	3.19900E-001	3.27776E-005	0.00000E+000	3.20000E-001	1.14022E-003	7	...........	-327.66
	829	0.166	3.29962E-001	3.27129E-005	0.00000E+000	3.30000E-001	1.16522E-003	7	...........	-327.66
	830	0.1662	3.39962E-001	3.26481E-005	0.00000E+000	3.40000E-001	1.14022E-003	7	...........	-327.66
	831	0.1664	3.49987E-001	3.25763E-005	0.00000E+000	3.50000E-001	1.24022E-003	7	...........	-327.66
	832	0.1666	3.59937E-001	3.25028E-005	0.00000E+000	3.60000E-001	1.01522E-003	7	...........	-327.66
	833	0.1668	3.69987E-001	3.24291E-005	0.00000E+000	3.70000E-001	1.21522E-003	7	...........	-327.66
	834	0.167	3.79950E-001	3.23558E-005	0.00000E+000	3.80000E-001	1.06522E-003	7	...........	-327.66
	835	0.1672	3.89937E-001	3.22738E-005	0.00000E+000	3.90000E-001	1.26522E-003	7	...........	-327.66
	836	0.1674	3.99937E-001	3.21935E-005	0.00000E+000	4.00000E-001	1.24022E-003	7	...........	-327.66
	837	0.1676	4.09850E-001	3.21150E-005	0.00000E+000	4.10000E-001	9.40224E-004	7	...........	-327.66
	838	0.1678	4.20000E-001	3.20338E-005	0.00000E+000	4.20000E-001	1.14022E-003	7	...........	-327.66
	839	0.168	4.29950E-001	3.19493E-005	0.00000E+000	4.30000E-001	1.14022E-003	7	...........	-327.66
	840	0.1682	4.39937E-001	3.18655E-005	0.00000E+000	4.40000E-001	1.21522E-003	7	...........	-327.66
	841	0.1684	4.49975E-001	3.17837E-005	0.00000E+000	4.50000E-001	1.09022E-003	7	...........	-327.66
	842	0.1686	4.59950E-001	3.16962E-005	0.00000E+000	4.60000E-001	1.24022E-003	7	...........	-327.66
	843	0.1688	4.69887E-001	3.16175E-005	0.00000E+000	4.70000E-001	9.90224E-004	7	...........	-327.66
	844	0.169	4.79975E-001	3.15394E-005	0.00000E+000	4.80000E-001	1.19022E-003	7	...........	-327.66
	845	0.1692	4.89975E-001	3.14612E-005	0.00000E+000	4.90000E-001	1.09022E-003	7	...........	-327.66
	846	0.1694	4.99950E-001	3.13842E-005	0.00000E+000	5.00000E-001	1.14022E-003	7	...........	-327.66
	847	0.1696	5.09975E-001	3.13097E-005	0.00000E+000	5.10000E-001	1.26522E-003	7	...........	-327.66
	848	0.1698	5.19925E-001	3.12392E-005	0.00000E+000	5.20000E-001	9.65224E-004	7	...........	-327.66
	849	0.17	5.29912E-001	3.11722E-005	0.00000E+000	5.30000E-001	1.11522E-003	7	...........	-327.66
	850	0.1702	5.39962E-001	3.11066E-005	0.00000E+000	5.40000E-001	1.09022E-003	7	...........	-327.66
	851	0.1704	5.49962E-001	3.10436E-005	0.00000E+000	5.50000E-001	1.16522E-003	7	...........	-327.66
	852	0.1706	5.59937E-001	3.09874E-005	0.00000E+000	5.60000E-001	1.09022E-003	7	...........	-327.66
	853	0.1708	5.69925E-001	3.09399E-005	0.00000E+000	5.70000E-001	1.16522E-003	7	...........	-327.66
	854	0.171	5.79925E-001	3.08946E-005	0.00000E+000	5.80000E-001	1.19022E-003	7	...........	-327.66
	855	0.1712	5.89912E-001	3.08511E-005	0.00000E+000	5.90000E-001	1.16522E-003	7	...........	-327.66
	856	0.1714	5.99900E-001	3.08154E-005	0.00000E+000	6.00000E-001	1.19022E-003	7	...........	-327.66
CURVE4	TABLE
	Pt	T	Vf	Im	Vu	Sig	Ach	IERange	Over	Temp
	#	s	V vs. Ref.	A	V	V	V	#	bits	deg C
	857	0.1716	5.89987E-001	2.80747E-005	0.00000E+000	5.90000E-001	1.21522E-003	7	...........	-327.66
	858	0.1718	5.79950E-001	2.54986E-005	0.00000E+000	5.80000E-001	1.19022E-003	7	...........	-327.66
	859	0.172	5.70062E-001	2.33431E-005	0.00000E+000	5.70000E-001	1.19022E-003	7	...........	-327.66
	860	0.1722	5.59962E-001	2.14681E-005	0.00000E+000	5.60000E-001	1.24022E-003	7	...........	-327.66
	861	0.1724	5.50012E-001	1.97954E-005	0.00000E+000	5.50000E-001	1.14022E-003	7	...........	-327.66
	862	0.1726	5.39925E-001	1.82711E-005	0.00000E+000	5.40000E-001	1.16522E-003	7	...........	-327.66
	863	0.1728	5.30037E-001	1.68765E-005	0.00000E+000	5.30000E-001	1.21522E-003	7	...........	-327.66
	864	0.173	5.20012E-001	1.55758E-005	0.00000E+000	5.20000E-001	1.21522E-003	7	...........	-327.66
	865	0.1732	5.10112E-001	1.43616E-005	0.00000E+000	5.10000E-001	1.09022E-003	7	...........	-327.66
	866	0.1734	4.99975E-001	1.32162E-005	0.00000E+000	5.00000E-001	1.24022E-003	7	...........	-327.66
	867	0.1736	4.90012E-001	1.21293E-005	0.00000E+000	4.90000E-001	1.29022E-003	7	...........	-327.66
	868	0.1738	4.79937E-001	1.10992E-005	0.00000E+000	4.80000E-001	1.29022E-003	7	...........	-327.66
	869	0.174	4.69937E-001	1.01203E-005	0.00000E+000	4.70000E-001	1.11522E-003	7	...........	-327.66
	870	0.1742	4.59950E-001	9.18166E-006	0.00000E+000	4.60000E-001	1.19022E-003	7	...........	-327.66
	871	0.1744	4.50062E-001	8.27853E-006	0.00000E+000	4.50000E-001	1.29022E-003	7	...........	-327.66
	872	0.1746	4.39962E-001	7.40966E-006	0.00000E+000	4.40000E-001	9.90224E-004	7	...........	-327.66
	873	0.1748	4.29937E-001	6.57880E-006	0.00000E+000	4.30000E-001	1.16522E-003	7	...........	-327.66
	874	0.175	4.20075E-001	5.77219E-006	0.00000E+000	4.20000E-001	1.11522E-003	7	...........	-327.66
	875	0.1752	4.10137E-001	4.99583E-006	0.00000E+000	4.10000E-001	1.16522E-003	7	...........	-327.66
	876	0.1754	3.99987E-001	4.23873E-006	0.00000E+000	4.00000E-001	1.11522E-003	7	...........	-327.66
	877	0.1756	3.90075E-001	3.50288E-006	0.00000E+000	3.90000E-001	1.29022E-003	7	...........	-327.66
	878	0.1758	3.79962E-001	2.79178E-006	0.00000E+000	3.80000E-001	1.24022E-003	7	...........	-327.66
	879	0.176	3.69987E-001	2.10519E-006	0.00000E+000	3.70000E-001	1.19022E-003	7	...........	-327.66
	880	0.1762	3.59987E-001	1.43260E-006	0.00000E+000	3.60000E-001	1.16522E-003	7	...........	-327.66
	881	0.1764	3.50062E-001	7.71509E-007	0.00000E+000	3.50000E-001	1.09022E-003	7	...........	-327.66
	882	0.1766	3.40037E-001	1.37923E-007	0.00000E+000	3.40000E-001	1.11522E-003	7	...........	-327.66
	883	0.1768	3.30237E-001	-4.89663E-007	0.00000E+000	3.30000E-001	1.01522E-003	7	...........	-327.66
	884	0.177	3.19987E-001	-1.09525E-006	0.00000E+000	3.20000E-001	1.14022E-003	7	...........	-327.66
	885	0.1772	3.10037E-001	-1.69358E-006	0.00000E+000	3.10000E-001	1.19022E-003	7	...........	-327.66
	886	0.1774	3.00000E-001	-2.27791E-006	0.00000E+000	3.00000E-001	1.16522E-003	7	...........	-327.66
	887	0.1776	2.90075E-001	-2.84723E-006	0.00000E+000	2.90000E-001	1.14022E-003	7	...........	-327.66
	888	0.1778	2.80012E-001	-3.40681E-006	0.00000E+000	2.80000E-001	1.01522E-003	7	...........	-327.66
	889	0.178	2.70225E-001	-3.95439E-006	0.00000E+000	2.70000E-001	1.16522E-003	7	...........	-327.66
	890	0.1782	2.60137E-001	-4.49771E-006	0.00000E+000	2.60000E-001	1.11522E-003	7	...........	-327.66
	891	0.1784	2.50237E-001	-5.02228E-006	0.00000E+000	2.50000E-001	9.40224E-004	7	...........	-327.66
	892	0.1786	2.40075E-001	-5.54035E-006	0.00000E+000	2.40000E-001	1.11522E-003	7	...........	-327.66
	893	0.1788	2.30137E-001	-6.05042E-006	0.00000E+000	2.30000E-001	1.11522E-003	7	...........	-327.66
	894	0.179	2.20012E-001	-6.55374E-006	0.00000E+000	2.20000E-001	1.29022E-003	7	...........	-327.66
	895	0.1792	2.10187E-001	-7.05156E-006	0.00000E+000	2.10000E-001	1.14022E-003	7	...........	-327.66
	896	0.1794	2.00025E-001	-7.53837E-006	0.00000E+000	2.00000E-001	9.90224E-004	7	...........	-327.66
	897	0.1796	1.90100E-001	-8.01994E-006	0.00000E+000	1.90000E-001	1.14022E-003	7	...........	-327.66
	898	0.1798	1.80162E-001	-8.49775E-006	0.00000E+000	1.80000E-001	1.14022E-003	7	...........	-327.66
	899	0.18	1.70212E-001	-8.96482E-006	0.00000E+000	1.70000E-001	9.65224E-004	7	...........	-327.66
	900	0.1802	1.60100E-001	-9.42463E-006	0.00000E+000	1.60000E-001	1.01522E-003	7	...........	-327.66
