EXPLAIN
TAG	CV
TITLE	LABEL	Cyclic Voltammetry	Test &Identifier
DATE	LABEL	4/24/2025	Date
TIME	LABEL	17:03:24	Time
NOTES	NOTES	3	&Notes...
	
	
	
PSTAT	PSTAT	IFC1010-32247	Potentiostat
VINIT	POTEN	0.00000E+000	T	Initial &E (V)
VLIMIT1	POTEN	-6.00000E-001	F	Scan Limit &1 (V)
VLIMIT2	POTEN	8.00000E-001	F	Scan Limit &2 (V)
VFINAL	POTEN	0.00000E+000	T	Final &E (V)
SCANRATE	QUANT	4.99999E+004	&Scan Rate (mV/s)
STEPSIZE	QUANT	1.00000E+001	St&ep Size (mV)
CYCLES	IQUANT	3	C&ycles (#)
IMODE	SELECTOR	1	I/E Range &Mode
IRANGE	QUANT	1.00000E-001	&Max Current (mA)
AREA	QUANT	1.00000E+000	Electrode &Area (cm^2)
ELECTRODETYPE	SELECTOR	0	Electrode Type
STRIPPING	TOGGLE	F	Used for Stripping
CONDIT	TWOPARAM	F	1.50000E+001	0.00000E+000	Conditionin&g	Time(s)	E(V)
DELAY	TWOPARAM	T	1.50000E+001	0.00000E+000	Init. De&lay	Time(s)	Stab.(mV/s)
EQDELAY	QUANT	0.00000E+000	Equil. &Time (s)
IRCOMP	SELECTOR	0	IRCom&p
PFCOR	QUANT	5.00000E+001	PF Corr. (ohm)
SAMPLINGMODE	SELECTOR	2	Sampling &Mode
OCVCURVE	TABLE	58
	Pt	T	Vf	Vm	Ach	Over	Temp
	#	s	V vs. Ref.	V	V	bits	deg C
	0	0.258333	2.85712E-001	2.85712E-001	0.00000E+000	...........	1367.83
	1	0.516667	2.85711E-001	2.85653E-001	0.00000E+000	...........	1367.83
	2	0.775	2.85705E-001	2.85627E-001	0.00000E+000	...........	1367.91
	3	1.03333	2.85688E-001	2.85577E-001	0.00000E+000	...........	1367.91
	4	1.29167	2.85660E-001	2.85522E-001	0.00000E+000	...........	1367.91
	5	1.55	2.85622E-001	2.85477E-001	0.00000E+000	...........	1367.91
	6	1.80833	2.85578E-001	2.85449E-001	0.00000E+000	...........	1368.00
	7	2.06667	2.85532E-001	2.85411E-001	0.00000E+000	...........	1368.00
	8	2.325	2.85489E-001	2.85345E-001	0.00000E+000	...........	1368.00
	9	2.58333	2.85447E-001	2.85304E-001	0.00000E+000	...........	1368.00
	10	2.84167	2.85403E-001	2.85281E-001	0.00000E+000	...........	1368.00
	11	3.1	2.85358E-001	2.85214E-001	0.00000E+000	...........	1368.00
	12	3.35833	2.85314E-001	2.85171E-001	0.00000E+000	...........	1368.00
	13	3.61667	2.85269E-001	2.85123E-001	0.00000E+000	...........	1368.00
	14	3.875	2.85223E-001	2.85092E-001	0.00000E+000	...........	1368.00
	15	4.13333	2.85177E-001	2.85044E-001	0.00000E+000	...........	1368.00
	16	4.39167	2.85133E-001	2.85013E-001	0.00000E+000	...........	1368.00
	17	4.65	2.85091E-001	2.84948E-001	0.00000E+000	...........	1367.92
	18	4.90833	2.85049E-001	2.84921E-001	0.00000E+000	...........	1367.91
	19	5.16667	2.85006E-001	2.84865E-001	0.00000E+000	...........	1367.91
	20	5.425	2.84962E-001	2.84813E-001	0.00000E+000	...........	1367.91
	21	5.68333	2.84916E-001	2.84782E-001	0.00000E+000	...........	1367.91
	22	5.94167	2.84870E-001	2.84732E-001	0.00000E+000	...........	1367.91
	23	6.2	2.84825E-001	2.84713E-001	0.00000E+000	...........	1367.91
	24	6.45833	2.84783E-001	2.84657E-001	0.00000E+000	...........	1367.91
	25	6.71667	2.84743E-001	2.84610E-001	0.00000E+000	...........	1368.00
	26	6.975	2.84703E-001	2.84562E-001	0.00000E+000	...........	1368.00
	27	7.23333	2.84660E-001	2.84540E-001	0.00000E+000	...........	1368.00
	28	7.49167	2.84616E-001	2.84469E-001	0.00000E+000	...........	1368.00
	29	7.75	2.84573E-001	2.84450E-001	0.00000E+000	...........	1368.00
	30	8.00833	2.84530E-001	2.84400E-001	0.00000E+000	...........	1368.00
	31	8.26667	2.84487E-001	2.84347E-001	0.00000E+000	...........	1368.00
	32	8.525	2.84444E-001	2.84310E-001	0.00000E+000	...........	1368.00
	33	8.78333	2.84401E-001	2.84263E-001	0.00000E+000	...........	1368.00
	34	9.04167	2.84356E-001	2.84222E-001	0.00000E+000	...........	1368.00
	35	9.3	2.84312E-001	2.84179E-001	0.00000E+000	...........	1368.00
	36	9.5583	2.84268E-001	2.84132E-001	0.00000E+000	...........	1368.00
	37	9.8167	2.84224E-001	2.84089E-001	0.00000E+000	...........	1367.91
	38	10.075	2.84181E-001	2.84054E-001	0.00000E+000	...........	1367.91
	39	10.3333	2.84138E-001	2.84016E-001	0.00000E+000	...........	1367.91
	40	10.5917	2.84096E-001	2.83962E-001	0.00000E+000	...........	1367.91
	41	10.85	2.84055E-001	2.83901E-001	0.00000E+000	...........	1368.00
	42	11.1083	2.84011E-001	2.83881E-001	0.00000E+000	...........	1368.00
	43	11.3667	2.83965E-001	2.83837E-001	0.00000E+000	...........	1368.00
	44	11.625	2.83921E-001	2.83808E-001	0.00000E+000	...........	1367.78
	45	11.8833	2.83880E-001	2.83753E-001	0.00000E+000	...........	1367.48
	46	12.1417	2.83841E-001	2.83720E-001	0.00000E+000	...........	1367.48
	47	12.4	2.83802E-001	2.83676E-001	0.00000E+000	...........	1367.48
	48	12.6583	2.83762E-001	2.83622E-001	0.00000E+000	...........	1367.91
	49	12.9167	2.83719E-001	2.83580E-001	0.00000E+000	...........	1367.91
	50	13.175	2.83675E-001	2.83539E-001	0.00000E+000	...........	1367.91
	51	13.4333	2.83630E-001	2.83502E-001	0.00000E+000	...........	1367.91
	52	13.6917	2.83586E-001	2.83466E-001	0.00000E+000	...........	1367.91
	53	13.95	2.83545E-001	2.83430E-001	0.00000E+000	...........	1367.91
	54	14.2083	2.83506E-001	2.83383E-001	0.00000E+000	...........	1367.91
	55	14.4667	2.83467E-001	2.83332E-001	0.00000E+000	...........	1367.91
	56	14.725	2.83427E-001	2.83289E-001	0.00000E+000	...........	1368.00
	57	14.9833	2.83384E-001	2.83250E-001	0.00000E+000	...........	1368.00
EOC	QUANT	0.2833837	Open Circuit (V)
PSTATMODEL	IQUANT	64	Pstat Model
PSTATSECTION	LABEL	IFC1010-32247	Pstat Section
PSTATSERIALNO	LABEL	32247	Pstat Serial Number
CTRLMODE	IQUANT	1	Control Mode
ELECTROMETER	IQUANT	0	RE=0 or CS=1
IESTAB	IQUANT	2	I/E Stability
CASPEED	IQUANT	4	Control Amp Speed
CONVENTION	IQUANT	1	Current Convention
ICHRANGE	IQUANT	2	Ich Range
ICHRANGEMODE	TOGGLE	F	Ich Auto Range
ICHOFFSETENABLE	TOGGLE	F	Ich Offset Enable
ICHOFFSET	QUANT	0	Ich Offset (V)
ICHFILTER	IQUANT	2	Ich Filter
VCHRANGE	IQUANT	2	Vch Range
VCHRANGEMODE	TOGGLE	F	Vch Auto Range
VCHOFFSETENABLE	TOGGLE	F	Vch Offset Enable
VCHOFFSET	QUANT	0	Vch Offset (V)
VCHFILTER	IQUANT	2	Vch Filter
IERANGELOWERLIMIT	IQUANT	4	I/E Range Lower Limit
IERANGEMODE	TOGGLE	F	I/E AutoRange
IERANGE	IQUANT	9	I/E Range
ACHSELECT	IQUANT	0	Ach Select
ACHRANGE	IQUANT	2	Ach Range
ACHOFFSETENABLE	TOGGLE	F	Ach Offset Enable
ACHOFFSET	QUANT	0	Ach Offset (V)
ACHFILTER	IQUANT	1	Ach Filter
SENSECABLEID	IQUANT	14	Sense Cable ID
PWRCABLEID	IQUANT	14	Power Cable ID
DCCALDATE	LABEL	11/18/2024	DC Calibration Date
ACCALDATE	LABEL	4/18/2022	AC Calibration Date
FRAMEWORKVERSION	LABEL	7.10.3	Framework Version
INSTRUMENTVERSION	LABEL	4.91	Instrument Version
COMMVERSION	LABEL	3.10	Communications Version
CPUPLDVERSION	LABEL	2.22	CPU PLD Version
CTRLPLDVERSION	LABEL	0.00	CTRL PLD Version
PSTATPLDVERSION	LABEL	0.00	PSTAT PLD Version
CURVE1	TABLE
	Pt	T	Vf	Im	Vu	Sig	Ach	IERange	Over	Temp
	#	s	V vs. Ref.	A	V	V	V	#	bits	deg C
	0	0.0002	2.83419E-001	2.81055E-007	0.00000E+000	2.83376E-001	0.00000E+000	9	...........	1368.00
	1	0.0004	2.73426E-001	-6.45423E-005	0.00000E+000	2.73379E-001	0.00000E+000	9	...........	1368.00
	2	0.0006	2.63924E-001	-1.08708E-004	0.00000E+000	2.63382E-001	0.00000E+000	9	...........	1368.00
	3	0.0008	2.53851E-001	-1.43949E-004	0.00000E+000	2.53384E-001	0.00000E+000	9	...........	1368.00
	4	0.001	2.43868E-001	-1.70236E-004	0.00000E+000	2.43387E-001	0.00000E+000	9	...........	1368.00
	5	0.0012	2.33866E-001	-1.89966E-004	0.00000E+000	2.33389E-001	0.00000E+000	9	...........	1368.00
	6	0.0014	2.23863E-001	-2.05156E-004	0.00000E+000	2.23392E-001	0.00000E+000	9	...........	1368.00
	7	0.0016	2.13820E-001	-2.16681E-004	0.00000E+000	2.13394E-001	0.00000E+000	9	...........	1368.00
	8	0.0018	2.03828E-001	-2.25593E-004	0.00000E+000	2.03397E-001	0.00000E+000	9	...........	1368.00
	9	0.002	1.93835E-001	-2.32194E-004	0.00000E+000	1.93399E-001	0.00000E+000	9	...........	1368.00
	10	0.0022	1.83852E-001	-2.37338E-004	0.00000E+000	1.83402E-001	0.00000E+000	9	...........	1368.00
	11	0.0024	1.73830E-001	-2.41267E-004	0.00000E+000	1.73405E-001	0.00000E+000	9	...........	1368.00
	12	0.0026	1.63797E-001	-2.44403E-004	0.00000E+000	1.63407E-001	0.00000E+000	9	...........	1368.00
	13	0.0028	1.53764E-001	-2.47074E-004	0.00000E+000	1.53360E-001	0.00000E+000	9	...........	1368.00
	14	0.003	1.43792E-001	-2.48825E-004	0.00000E+000	1.43362E-001	0.00000E+000	9	...........	1368.00
	15	0.0032	1.33829E-001	-2.50216E-004	0.00000E+000	1.33365E-001	0.00000E+000	9	...........	1368.00
	16	0.0034	1.23806E-001	-2.51677E-004	0.00000E+000	1.23367E-001	0.00000E+000	9	...........	1368.00
	17	0.0036	1.13813E-001	-2.53272E-004	0.00000E+000	1.13370E-001	0.00000E+000	9	...........	1368.00
	18	0.0038	1.03811E-001	-2.54149E-004	0.00000E+000	1.03373E-001	0.00000E+000	9	...........	1368.00
	19	0.004	9.37981E-002	-2.53775E-004	0.00000E+000	9.33751E-002	0.00000E+000	9	...........	1368.00
	20	0.0042	8.37854E-002	-2.52385E-004	0.00000E+000	8.33776E-002	0.00000E+000	9	...........	1368.00
	21	0.0044	7.37927E-002	-2.50430E-004	0.00000E+000	7.33802E-002	0.00000E+000	9	...........	1368.00
	22	0.0046	6.37500E-002	-2.48228E-004	0.00000E+000	6.33827E-002	0.00000E+000	9	...........	1368.00
	23	0.0048	5.38073E-002	-2.46160E-004	0.00000E+000	5.33853E-002	0.00000E+000	9	...........	1368.00
	24	0.005	4.38046E-002	-2.44506E-004	0.00000E+000	4.33879E-002	0.00000E+000	9	...........	1368.00
	25	0.0052	3.38319E-002	-2.43215E-004	0.00000E+000	3.33904E-002	0.00000E+000	9	...........	1368.00
	26	0.0054	2.37592E-002	-2.42405E-004	0.00000E+000	2.33930E-002	0.00000E+000	9	...........	1368.00
	27	0.0056	1.37765E-002	-2.41901E-004	0.00000E+000	1.33955E-002	0.00000E+000	9	...........	1368.00
	28	0.0058	3.81383E-003	-2.41921E-004	0.00000E+000	3.39811E-003	0.00000E+000	9	...........	1368.00
	29	0.006	-6.21887E-003	-2.42304E-004	0.00000E+000	-6.59934E-003	0.00000E+000	9	...........	1368.00
	30	0.0062	-1.61716E-002	-2.43078E-004	0.00000E+000	-1.65968E-002	0.00000E+000	9	...........	1368.00
	31	0.0064	-2.62143E-002	-2.44276E-004	0.00000E+000	-2.65942E-002	0.00000E+000	9	...........	1368.00
	32	0.0066	-3.62070E-002	-2.45763E-004	0.00000E+000	-3.65917E-002	0.00000E+000	9	...........	1368.00
	33	0.0068	-4.62197E-002	-2.48138E-004	0.00000E+000	-4.66391E-002	0.00000E+000	9	...........	1368.00
	34	0.007	-5.62323E-002	-2.50520E-004	0.00000E+000	-5.66365E-002	0.00000E+000	9	...........	1368.00
	35	0.0072	-6.62550E-002	-2.53312E-004	0.00000E+000	-6.66340E-002	0.00000E+000	9	...........	1368.00
	36	0.0074	-7.62577E-002	-2.56657E-004	0.00000E+000	-7.66314E-002	0.00000E+000	9	...........	1368.00
	37	0.0076	-8.62304E-002	-2.60170E-004	0.00000E+000	-8.66289E-002	0.00000E+000	9	...........	1368.00
	38	0.0078	-9.62331E-002	-2.63755E-004	0.00000E+000	-9.66263E-002	0.00000E+000	9	...........	1368.00
	39	0.008	-1.06226E-001	-2.67188E-004	0.00000E+000	-1.06624E-001	0.00000E+000	9	...........	1368.00
	40	0.0082	-1.16259E-001	-2.70487E-004	0.00000E+000	-1.16621E-001	0.00000E+000	9	...........	1368.00
	41	0.0084	-1.26201E-001	-2.73612E-004	0.00000E+000	-1.26619E-001	0.00000E+000	9	...........	1368.00
	42	0.0086	-1.36204E-001	-2.76671E-004	0.00000E+000	-1.36616E-001	0.00000E+000	9	...........	1368.00
	43	0.0088	-1.46187E-001	-2.79536E-004	0.00000E+000	-1.46613E-001	0.00000E+000	9	...........	1368.00
	44	0.009	-1.56209E-001	-2.82234E-004	0.00000E+000	-1.56611E-001	0.00000E+000	9	...........	1368.00
	45	0.0092	-1.66242E-001	-2.84539E-004	0.00000E+000	-1.66608E-001	0.00000E+000	9	...........	1368.00
	46	0.0094	-1.76205E-001	-2.86694E-004	0.00000E+000	-1.76606E-001	0.00000E+000	9	...........	1368.00
	47	0.0096	-1.86207E-001	-2.88542E-004	0.00000E+000	-1.86603E-001	0.00000E+000	9	...........	1368.00
	48	0.0098	-1.96230E-001	-2.90303E-004	0.00000E+000	-1.96601E-001	0.00000E+000	9	...........	1368.00
	49	0.01	-2.06193E-001	-2.91928E-004	0.00000E+000	-2.06598E-001	0.00000E+000	9	...........	1368.00
	50	0.0102	-2.16225E-001	-2.93485E-004	0.00000E+000	-2.16596E-001	0.00000E+000	9	...........	1368.00
	51	0.0104	-2.26168E-001	-2.95080E-004	0.00000E+000	-2.26593E-001	0.00000E+000	9	...........	1368.00
	52	0.0106	-2.36211E-001	-2.96607E-004	0.00000E+000	-2.36590E-001	0.00000E+000	9	...........	1368.00
	53	0.0108	-2.46244E-001	-2.98555E-004	0.00000E+000	-2.46638E-001	0.00000E+000	9	...........	1368.00
	54	0.011	-2.56266E-001	-3.00360E-004	0.00000E+000	-2.56635E-001	0.00000E+000	9	...........	1368.00
	55	0.0112	-2.66269E-001	-3.02108E-004	0.00000E+000	-2.66633E-001	0.00000E+000	9	...........	1368.00
	56	0.0114	-2.76252E-001	-3.04189E-004	0.00000E+000	-2.76630E-001	0.00000E+000	9	...........	1368.00
	57	0.0116	-2.86234E-001	-3.06211E-004	0.00000E+000	-2.86628E-001	0.00000E+000	9	...........	1368.00
	58	0.0118	-2.96247E-001	-3.08559E-004	0.00000E+000	-2.96625E-001	0.00000E+000	9	...........	1368.00
	59	0.012	-3.06260E-001	-3.10844E-004	0.00000E+000	-3.06623E-001	0.00000E+000	9	...........	1368.00
	60	0.0122	-3.16232E-001	-3.12838E-004	0.00000E+000	-3.16620E-001	0.00000E+000	9	...........	1368.00
	61	0.0124	-3.26225E-001	-3.14860E-004	0.00000E+000	-3.26617E-001	0.00000E+000	9	...........	1368.00
	62	0.0126	-3.36248E-001	-3.16691E-004	0.00000E+000	-3.36615E-001	0.00000E+000	9	...........	1368.00
	63	0.0128	-3.46230E-001	-3.18058E-004	0.00000E+000	-3.46612E-001	0.00000E+000	9	...........	1368.00
	64	0.013	-3.56183E-001	-3.19086E-004	0.00000E+000	-3.56610E-001	0.00000E+000	9	...........	1368.00
	65	0.0132	-3.66196E-001	-3.19633E-004	0.00000E+000	-3.66607E-001	0.00000E+000	9	...........	1368.00
	66	0.0134	-3.76219E-001	-3.19710E-004	0.00000E+000	-3.76605E-001	0.00000E+000	9	...........	1368.00
	67	0.0136	-3.86191E-001	-3.19199E-004	0.00000E+000	-3.86602E-001	0.00000E+000	9	...........	1368.00
	68	0.0138	-3.96204E-001	-3.18249E-004	0.00000E+000	-3.96600E-001	0.00000E+000	9	...........	1368.00
	69	0.014	-4.06207E-001	-3.16734E-004	0.00000E+000	-4.06597E-001	0.00000E+000	9	...........	1368.00
	70	0.0142	-4.16229E-001	-3.14723E-004	0.00000E+000	-4.16594E-001	0.00000E+000	9	...........	1368.00
	71	0.0144	-4.26222E-001	-3.12208E-004	0.00000E+000	-4.26592E-001	0.00000E+000	9	...........	1368.00
	72	0.0146	-4.36305E-001	-3.09673E-004	0.00000E+000	-4.36639E-001	0.00000E+000	9	...........	1368.00
	73	0.0148	-4.46267E-001	-3.06327E-004	0.00000E+000	-4.46637E-001	0.00000E+000	9	...........	1368.00
	74	0.015	-4.56280E-001	-3.02675E-004	0.00000E+000	-4.56634E-001	0.00000E+000	9	...........	1368.00
	75	0.0152	-4.66293E-001	-2.98792E-004	0.00000E+000	-4.66632E-001	0.00000E+000	9	...........	1368.00
	76	0.0154	-4.76295E-001	-2.94499E-004	0.00000E+000	-4.76629E-001	0.00000E+000	9	...........	1368.00
	77	0.0156	-4.86258E-001	-2.89990E-004	0.00000E+000	-4.86626E-001	0.00000E+000	9	...........	1368.00
	78	0.0158	-4.96291E-001	-2.85146E-004	0.00000E+000	-4.96624E-001	0.00000E+000	9	...........	1368.00
	79	0.016	-5.06253E-001	-2.80096E-004	0.00000E+000	-5.06621E-001	0.00000E+000	9	...........	1368.00
	80	0.0162	-5.16276E-001	-2.74536E-004	0.00000E+000	-5.16619E-001	0.00000E+000	9	...........	1368.00
	81	0.0164	-5.26259E-001	-2.68892E-004	0.00000E+000	-5.26616E-001	0.00000E+000	9	...........	1368.00
	82	0.0166	-5.36272E-001	-2.62988E-004	0.00000E+000	-5.36614E-001	0.00000E+000	9	...........	1368.00
	83	0.0168	-5.46294E-001	-2.56767E-004	0.00000E+000	-5.46611E-001	0.00000E+000	9	...........	1368.00
	84	0.017	-5.56287E-001	-2.50573E-004	0.00000E+000	-5.56609E-001	0.00000E+000	9	...........	1368.00
	85	0.0172	-5.66280E-001	-2.44259E-004	0.00000E+000	-5.66606E-001	0.00000E+000	9	...........	1368.00
	86	0.0174	-5.76292E-001	-2.37898E-004	0.00000E+000	-5.76603E-001	0.00000E+000	9	...........	1368.00
	87	0.0176	-5.86215E-001	-2.31604E-004	0.00000E+000	-5.86601E-001	0.00000E+000	9	...........	1368.00
	88	0.0178	-5.96248E-001	-2.25447E-004	0.00000E+000	-5.96598E-001	0.00000E+000	9	...........	1368.00
	89	0.018	-5.87185E-001	-1.05893E-004	0.00000E+000	-5.86601E-001	0.00000E+000	9	...........	1368.00
	90	0.0182	-5.77053E-001	-3.67670E-005	0.00000E+000	-5.76603E-001	0.00000E+000	9	...........	1368.00
	91	0.0184	-5.67050E-001	5.91816E-006	0.00000E+000	-5.66606E-001	0.00000E+000	9	...........	1368.00
	92	0.0186	-5.57037E-001	3.47374E-005	0.00000E+000	-5.56609E-001	0.00000E+000	9	...........	1368.00
	93	0.0188	-5.47024E-001	5.54179E-005	0.00000E+000	-5.46611E-001	0.00000E+000	9	...........	1368.00
	94	0.019	-5.37032E-001	7.13052E-005	0.00000E+000	-5.36614E-001	0.00000E+000	9	...........	1368.00
	95	0.0192	-5.26969E-001	8.40304E-005	0.00000E+000	-5.26616E-001	0.00000E+000	9	...........	1368.00
	96	0.0194	-5.17026E-001	9.46741E-005	0.00000E+000	-5.16619E-001	0.00000E+000	9	...........	1368.00
	97	0.0196	-5.06974E-001	1.03917E-004	0.00000E+000	-5.06621E-001	0.00000E+000	9	...........	1368.00
	98	0.0198	-4.97001E-001	1.12329E-004	0.00000E+000	-4.96624E-001	0.00000E+000	9	...........	1368.00
	99	0.02	-4.87008E-001	1.19894E-004	0.00000E+000	-4.86626E-001	0.00000E+000	9	...........	1368.00
	100	0.0202	-4.77056E-001	1.27233E-004	0.00000E+000	-4.76629E-001	0.00000E+000	9	...........	1368.00
	101	0.0204	-4.67043E-001	1.34027E-004	0.00000E+000	-4.66632E-001	0.00000E+000	9	...........	1368.00
	102	0.0206	-4.57000E-001	1.40445E-004	0.00000E+000	-4.56634E-001	0.00000E+000	9	...........	1368.00
	103	0.0208	-4.46998E-001	1.46786E-004	0.00000E+000	-4.46637E-001	0.00000E+000	9	...........	1368.00
	104	0.021	-4.37015E-001	1.52923E-004	0.00000E+000	-4.36639E-001	0.00000E+000	9	...........	1368.00
	105	0.0212	-4.26972E-001	1.59127E-004	0.00000E+000	-4.26592E-001	0.00000E+000	9	...........	1368.00
	106	0.0214	-4.16949E-001	1.64764E-004	0.00000E+000	-4.16594E-001	0.00000E+000	9	...........	1368.00
	107	0.0216	-4.06967E-001	1.70285E-004	0.00000E+000	-4.06597E-001	0.00000E+000	9	...........	1368.00
	108	0.0218	-3.96954E-001	1.75632E-004	0.00000E+000	-3.96600E-001	0.00000E+000	9	...........	1368.00
	109	0.022	-3.86981E-001	1.80972E-004	0.00000E+000	-3.86602E-001	0.00000E+000	9	...........	1368.00
	110	0.0222	-3.77009E-001	1.86159E-004	0.00000E+000	-3.76605E-001	0.00000E+000	9	...........	1368.00
	111	0.0224	-3.67026E-001	1.91052E-004	0.00000E+000	-3.66607E-001	0.00000E+000	9	...........	1368.00
	112	0.0226	-3.56973E-001	1.95795E-004	0.00000E+000	-3.56610E-001	0.00000E+000	9	...........	1368.00
	113	0.0228	-3.47011E-001	2.00305E-004	0.00000E+000	-3.46612E-001	0.00000E+000	9	...........	1368.00
	114	0.023	-3.37008E-001	2.04611E-004	0.00000E+000	-3.36615E-001	0.00000E+000	9	...........	1368.00
	115	0.0232	-3.26995E-001	2.08794E-004	0.00000E+000	-3.26617E-001	0.00000E+000	9	...........	1368.00
	116	0.0234	-3.16983E-001	2.12803E-004	0.00000E+000	-3.16620E-001	0.00000E+000	9	...........	1368.00
	117	0.0236	-3.06970E-001	2.16369E-004	0.00000E+000	-3.06623E-001	0.00000E+000	9	...........	1368.00
	118	0.0238	-2.97017E-001	2.20108E-004	0.00000E+000	-2.96625E-001	0.00000E+000	9	...........	1368.00
	119	0.024	-2.86984E-001	2.23544E-004	0.00000E+000	-2.86628E-001	0.00000E+000	9	...........	1368.00
	120	0.0242	-2.77012E-001	2.26876E-004	0.00000E+000	-2.76630E-001	0.00000E+000	9	...........	1368.00
	121	0.0244	-2.67029E-001	2.29975E-004	0.00000E+000	-2.66633E-001	0.00000E+000	9	...........	1368.00
	122	0.0246	-2.57056E-001	2.32960E-004	0.00000E+000	-2.56635E-001	0.00000E+000	9	...........	1368.00
	123	0.0248	-2.46994E-001	2.35835E-004	0.00000E+000	-2.46638E-001	0.00000E+000	9	...........	1368.00
	124	0.025	-2.36981E-001	2.38787E-004	0.00000E+000	-2.36590E-001	0.00000E+000	9	...........	1368.00
	125	0.0252	-2.26968E-001	2.41229E-004	0.00000E+000	-2.26593E-001	0.00000E+000	9	...........	1368.00
	126	0.0254	-2.16946E-001	2.43497E-004	0.00000E+000	-2.16596E-001	0.00000E+000	9	...........	1368.00
	127	0.0256	-2.07003E-001	2.45585E-004	0.00000E+000	-2.06598E-001	0.00000E+000	9	...........	1368.00
	128	0.0258	-1.96990E-001	2.47580E-004	0.00000E+000	-1.96601E-001	0.00000E+000	9	...........	1368.00
	129	0.026	-1.86978E-001	2.49344E-004	0.00000E+000	-1.86603E-001	0.00000E+000	9	...........	1368.00
	130	0.0262	-1.76975E-001	2.50969E-004	0.00000E+000	-1.76606E-001	0.00000E+000	9	...........	1368.00
	131	0.0264	-1.66992E-001	2.52383E-004	0.00000E+000	-1.66608E-001	0.00000E+000	9	...........	1368.00
	132	0.0266	-1.56979E-001	2.53724E-004	0.00000E+000	-1.56611E-001	0.00000E+000	9	...........	1368.00
	133	0.0268	-1.46997E-001	2.54738E-004	0.00000E+000	-1.46613E-001	0.00000E+000	9	...........	1368.00
	134	0.027	-1.36994E-001	2.55682E-004	0.00000E+000	-1.36616E-001	0.00000E+000	9	...........	1368.00
	135	0.0272	-1.27001E-001	2.56322E-004	0.00000E+000	-1.26619E-001	0.00000E+000	9	...........	1368.00
	136	0.0274	-1.17009E-001	2.56863E-004	0.00000E+000	-1.16621E-001	0.00000E+000	9	...........	1368.00
	137	0.0276	-1.06996E-001	2.57096E-004	0.00000E+000	-1.06624E-001	0.00000E+000	9	...........	1368.00
	138	0.0278	-9.70233E-002	2.57183E-004	0.00000E+000	-9.66263E-002	0.00000E+000	9	...........	1368.00
	139	0.028	-8.70306E-002	2.57149E-004	0.00000E+000	-8.66289E-002	0.00000E+000	9	...........	1368.00
	140	0.0282	-7.70079E-002	2.57036E-004	0.00000E+000	-7.66314E-002	0.00000E+000	9	...........	1368.00
	141	0.0284	-6.70253E-002	2.56859E-004	0.00000E+000	-6.66340E-002	0.00000E+000	9	...........	1368.00
	142	0.0286	-5.70426E-002	2.56672E-004	0.00000E+000	-5.66365E-002	0.00000E+000	9	...........	1368.00
	143	0.0288	-4.69999E-002	2.56509E-004	0.00000E+000	-4.66391E-002	0.00000E+000	9	...........	1368.00
	144	0.029	-3.69872E-002	2.56746E-004	0.00000E+000	-3.65917E-002	0.00000E+000	9	...........	1368.00
	145	0.0292	-2.70045E-002	2.56833E-004	0.00000E+000	-2.65942E-002	0.00000E+000	9	...........	1368.00
	146	0.0294	-1.70018E-002	2.57219E-004	0.00000E+000	-1.65968E-002	0.00000E+000	9	...........	1368.00
	147	0.0296	-6.98908E-003	2.57880E-004	0.00000E+000	-6.59934E-003	0.00000E+000	9	...........	1368.00
	148	0.0298	3.02361E-003	2.58737E-004	0.00000E+000	3.39811E-003	0.00000E+000	9	...........	1368.00
	149	0.03	1.30763E-002	2.59731E-004	0.00000E+000	1.33955E-002	0.00000E+000	9	...........	1368.00
	150	0.0302	2.30390E-002	2.60638E-004	0.00000E+000	2.33930E-002	0.00000E+000	9	...........	1368.00
	151	0.0304	3.30217E-002	2.61199E-004	0.00000E+000	3.33904E-002	0.00000E+000	9	...........	1368.00
	152	0.0306	4.29944E-002	2.61316E-004	0.00000E+000	4.33879E-002	0.00000E+000	9	...........	1368.00
	153	0.0308	5.30171E-002	2.61235E-004	0.00000E+000	5.33853E-002	0.00000E+000	9	...........	1368.00
	154	0.031	6.29798E-002	2.61092E-004	0.00000E+000	6.33827E-002	0.00000E+000	9	...........	1368.00
	155	0.0312	7.29825E-002	2.60995E-004	0.00000E+000	7.33802E-002	0.00000E+000	9	...........	1368.00
	156	0.0314	8.30452E-002	2.61205E-004	0.00000E+000	8.33776E-002	0.00000E+000	9	...........	1368.00
	157	0.0316	9.30579E-002	2.61529E-004	0.00000E+000	9.33751E-002	0.00000E+000	9	...........	1368.00
	158	0.0318	1.03021E-001	2.62219E-004	0.00000E+000	1.03373E-001	0.00000E+000	9	...........	1368.00
	159	0.032	1.13003E-001	2.63097E-004	0.00000E+000	1.13370E-001	0.00000E+000	9	...........	1368.00
	160	0.0322	1.23006E-001	2.64398E-004	0.00000E+000	1.23367E-001	0.00000E+000	9	...........	1368.00
	161	0.0324	1.32999E-001	2.65895E-004	0.00000E+000	1.33365E-001	0.00000E+000	9	...........	1368.00
	162	0.0326	1.43031E-001	2.67820E-004	0.00000E+000	1.43362E-001	0.00000E+000	9	...........	1368.00
	163	0.0328	1.52994E-001	2.69865E-004	0.00000E+000	1.53360E-001	0.00000E+000	9	...........	1368.00
	164	0.033	1.63037E-001	2.72733E-004	0.00000E+000	1.63407E-001	0.00000E+000	9	...........	1368.00
	165	0.0332	1.73029E-001	2.75368E-004	0.00000E+000	1.73405E-001	0.00000E+000	9	...........	1368.00
	166	0.0334	1.83022E-001	2.78504E-004	0.00000E+000	1.83402E-001	0.00000E+000	9	...........	1368.00
	167	0.0336	1.93035E-001	2.81833E-004	0.00000E+000	1.93399E-001	0.00000E+000	9	...........	1368.00
	168	0.0338	2.03037E-001	2.85782E-004	0.00000E+000	2.03397E-001	0.00000E+000	9	...........	1368.00
	169	0.034	2.12980E-001	2.90008E-004	0.00000E+000	2.13394E-001	0.00000E+000	9	...........	1368.00
	170	0.0342	2.23013E-001	2.94881E-004	0.00000E+000	2.23392E-001	0.00000E+000	9	...........	1368.00
	171	0.0344	2.33036E-001	3.00188E-004	0.00000E+000	2.33389E-001	0.00000E+000	9	...........	1368.00
	172	0.0346	2.43048E-001	3.06032E-004	0.00000E+000	2.43387E-001	0.00000E+000	9	...........	1368.00
	173	0.0348	2.52991E-001	3.12353E-004	0.00000E+000	2.53384E-001	0.00000E+000	9	...........	1368.00
	174	0.035	2.62994E-001	3.18894E-004	0.00000E+000	2.63382E-001	0.00000E+000	9	...........	1368.00
	175	0.0352	2.72966E-001	3.25232E-004	0.00000E+000	2.73379E-001	0.00000E+000	9	...........	1368.00
	176	0.0354	2.83019E-001	3.31206E-004	0.00000E+000	2.83376E-001	0.00000E+000	9	...........	1368.00
	177	0.0356	2.93002E-001	3.36556E-004	0.00000E+000	2.93374E-001	0.00000E+000	9	...........	1368.00
	178	0.0358	3.02994E-001	3.41396E-004	0.00000E+000	3.03371E-001	0.00000E+000	9	...........	1368.00
	179	0.036	3.12997E-001	3.45565E-004	0.00000E+000	3.13369E-001	0.00000E+000	9	...........	1368.00
	180	0.0362	3.22960E-001	3.49551E-004	0.00000E+000	3.23366E-001	0.00000E+000	9	...........	1368.00
	181	0.0364	3.33033E-001	3.53090E-004	0.00000E+000	3.33364E-001	0.00000E+000	9	...........	1368.00
	182	0.0366	3.43025E-001	3.56272E-004	0.00000E+000	3.43361E-001	0.00000E+000	9	...........	1368.00
	183	0.0368	3.53048E-001	3.59198E-004	0.00000E+000	3.53409E-001	0.00000E+000	9	...........	1368.00
	184	0.037	3.63031E-001	3.61079E-004	0.00000E+000	3.63406E-001	0.00000E+000	9	...........	1368.00
	185	0.0372	3.72983E-001	3.62200E-004	0.00000E+000	3.73403E-001	0.00000E+000	9	...........	1368.00
	186	0.0374	3.83066E-001	3.63100E-004	0.00000E+000	3.83401E-001	0.00000E+000	9	...........	1368.00
	187	0.0376	3.93019E-001	3.63294E-004	0.00000E+000	3.93398E-001	0.00000E+000	9	...........	1368.00
	188	0.0378	4.03061E-001	3.62964E-004	0.00000E+000	4.03396E-001	0.00000E+000	9	...........	1368.00
	189	0.038	4.13024E-001	3.62150E-004	0.00000E+000	4.13393E-001	0.00000E+000	9	...........	1368.00
	190	0.0382	4.23027E-001	3.61019E-004	0.00000E+000	4.23391E-001	0.00000E+000	9	...........	1368.00
	191	0.0384	4.33009E-001	3.59411E-004	0.00000E+000	4.33388E-001	0.00000E+000	9	...........	1368.00
	192	0.0386	4.43042E-001	3.57820E-004	0.00000E+000	4.43385E-001	0.00000E+000	9	...........	1368.00
	193	0.0388	4.53005E-001	3.55709E-004	0.00000E+000	4.53383E-001	0.00000E+000	9	...........	1368.00
	194	0.039	4.63058E-001	3.53644E-004	0.00000E+000	4.63380E-001	0.00000E+000	9	...........	1368.00
	195	0.0392	4.73050E-001	3.51149E-004	0.00000E+000	4.73378E-001	0.00000E+000	9	...........	1368.00
	196	0.0394	4.83013E-001	3.48487E-004	0.00000E+000	4.83375E-001	0.00000E+000	9	...........	1368.00
	197	0.0396	4.93026E-001	3.45518E-004	0.00000E+000	4.93373E-001	0.00000E+000	9	...........	1368.00
	198	0.0398	5.03048E-001	3.42100E-004	0.00000E+000	5.03370E-001	0.00000E+000	9	...........	1368.00
	199	0.04	5.13031E-001	3.38214E-004	0.00000E+000	5.13368E-001	0.00000E+000	9	...........	1368.00
	200	0.0402	5.23064E-001	3.34064E-004	0.00000E+000	5.23365E-001	0.00000E+000	9	...........	1368.00
	201	0.0404	5.33026E-001	3.29685E-004	0.00000E+000	5.33362E-001	0.00000E+000	9	...........	1368.00
	202	0.0406	5.43049E-001	3.25092E-004	0.00000E+000	5.43360E-001	0.00000E+000	9	...........	1368.00
	203	0.0408	5.53112E-001	3.20709E-004	0.00000E+000	5.53407E-001	0.00000E+000	9	...........	1368.00
	204	0.041	5.63114E-001	3.15822E-004	0.00000E+000	5.63405E-001	0.00000E+000	9	...........	1368.00
	205	0.0412	5.73087E-001	3.10945E-004	0.00000E+000	5.73402E-001	0.00000E+000	9	...........	1368.00
	206	0.0414	5.83110E-001	3.05985E-004	0.00000E+000	5.83400E-001	0.00000E+000	9	...........	1368.00
	207	0.0416	5.93083E-001	3.01125E-004	0.00000E+000	5.93397E-001	0.00000E+000	9	...........	1368.00
	208	0.0418	6.03105E-001	2.96419E-004	0.00000E+000	6.03395E-001	0.00000E+000	9	...........	1368.00
	209	0.042	6.13098E-001	2.91769E-004	0.00000E+000	6.13392E-001	0.00000E+000	9	...........	1368.00
	210	0.0422	6.23071E-001	2.87496E-004	0.00000E+000	6.23389E-001	0.00000E+000	9	...........	1368.00
	211	0.0424	6.33073E-001	2.83350E-004	0.00000E+000	6.33387E-001	0.00000E+000	9	...........	1368.00
	212	0.0426	6.43106E-001	2.79484E-004	0.00000E+000	6.43384E-001	0.00000E+000	9	...........	1368.00
	213	0.0428	6.53069E-001	2.75842E-004	0.00000E+000	6.53382E-001	0.00000E+000	9	...........	1368.00
	214	0.043	6.63081E-001	2.72563E-004	0.00000E+000	6.63379E-001	0.00000E+000	9	...........	1368.00
	215	0.0432	6.73024E-001	2.69164E-004	0.00000E+000	6.73377E-001	0.00000E+000	9	...........	1368.00
	216	0.0434	6.83077E-001	2.66135E-004	0.00000E+000	6.83374E-001	0.00000E+000	9	...........	1368.00
	217	0.0436	6.93059E-001	2.62877E-004	0.00000E+000	6.93371E-001	0.00000E+000	9	...........	1368.00
	218	0.0438	7.03092E-001	2.59448E-004	0.00000E+000	7.03369E-001	0.00000E+000	9	...........	1368.00
	219	0.044	7.13055E-001	2.55799E-004	0.00000E+000	7.13366E-001	0.00000E+000	9	...........	1368.00
	220	0.0442	7.23068E-001	2.51833E-004	0.00000E+000	7.23364E-001	0.00000E+000	9	...........	1368.00
	221	0.0444	7.33080E-001	2.47897E-004	0.00000E+000	7.33361E-001	0.00000E+000	9	...........	1368.00
	222	0.0446	7.43133E-001	2.44064E-004	0.00000E+000	7.43359E-001	0.00000E+000	9	...........	1368.00
	223	0.0448	7.53076E-001	2.40398E-004	0.00000E+000	7.53406E-001	0.00000E+000	9	...........	1368.00
	224	0.045	7.63128E-001	2.36889E-004	0.00000E+000	7.63404E-001	0.00000E+000	9	...........	1368.00
	225	0.0452	7.73091E-001	2.33524E-004	0.00000E+000	7.73401E-001	0.00000E+000	9	...........	1368.00
	226	0.0454	7.83114E-001	2.30578E-004	0.00000E+000	7.83398E-001	0.00000E+000	9	...........	1368.00
	227	0.0456	7.93156E-001	2.28093E-004	0.00000E+000	7.93396E-001	0.00000E+000	9	...........	1368.00
	228	0.0458	8.03149E-001	2.26215E-004	0.00000E+000	8.03393E-001	0.00000E+000	9	...........	1368.00
CURVE2	TABLE
	Pt	T	Vf	Im	Vu	Sig	Ach	IERange	Over	Temp
	#	s	V vs. Ref.	A	V	V	V	#	bits	deg C
	229	0.046	7.90816E-001	9.33833E-005	0.00000E+000	7.89997E-001	0.00000E+000	9	...........	1368.00
	230	0.0462	7.80523E-001	3.24125E-005	0.00000E+000	7.79999E-001	0.00000E+000	9	...........	1368.00
	231	0.0464	7.70530E-001	-8.02450E-006	0.00000E+000	7.70002E-001	0.00000E+000	9	...........	1368.00
	232	0.0466	7.60458E-001	-3.67137E-005	0.00000E+000	7.60004E-001	0.00000E+000	9	...........	1368.00
	233	0.0468	7.50465E-001	-5.79312E-005	0.00000E+000	7.50007E-001	0.00000E+000	9	...........	1368.00
	234	0.047	7.40442E-001	-7.44689E-005	0.00000E+000	7.40010E-001	0.00000E+000	9	...........	1368.00
	235	0.0472	7.30480E-001	-8.77478E-005	0.00000E+000	7.30012E-001	0.00000E+000	9	...........	1368.00
	236	0.0474	7.20457E-001	-9.90653E-005	0.00000E+000	7.20015E-001	0.00000E+000	9	...........	1368.00
	237	0.0476	7.10464E-001	-1.08912E-004	0.00000E+000	7.10017E-001	0.00000E+000	9	...........	1368.00
	238	0.0478	7.00471E-001	-1.18228E-004	0.00000E+000	7.00020E-001	0.00000E+000	9	...........	1368.00
	239	0.048	6.90469E-001	-1.26784E-004	0.00000E+000	6.90022E-001	0.00000E+000	9	...........	1368.00
	240	0.0482	6.80496E-001	-1.35049E-004	0.00000E+000	6.80025E-001	0.00000E+000	9	...........	1368.00
	241	0.0484	6.70403E-001	-1.43395E-004	0.00000E+000	6.69977E-001	0.00000E+000	9	...........	1368.00
	242	0.0486	6.60441E-001	-1.51164E-004	0.00000E+000	6.59980E-001	0.00000E+000	9	...........	1368.00
	243	0.0488	6.50418E-001	-1.58989E-004	0.00000E+000	6.49983E-001	0.00000E+000	9	...........	1368.00
	244	0.049	6.40435E-001	-1.66854E-004	0.00000E+000	6.39985E-001	0.00000E+000	9	...........	1368.00
	245	0.0492	6.30453E-001	-1.74499E-004	0.00000E+000	6.29988E-001	0.00000E+000	9	...........	1368.00
	246	0.0494	6.20440E-001	-1.82128E-004	0.00000E+000	6.19990E-001	0.00000E+000	9	...........	1368.00
	247	0.0496	6.10417E-001	-1.89462E-004	0.00000E+000	6.09993E-001	0.00000E+000	9	...........	1368.00
	248	0.0498	6.00405E-001	-1.96601E-004	0.00000E+000	5.99995E-001	0.00000E+000	9	...........	1368.00
	249	0.05	5.90442E-001	-2.03115E-004	0.00000E+000	5.89998E-001	0.00000E+000	9	...........	1368.00
	250	0.0502	5.80479E-001	-2.09169E-004	0.00000E+000	5.80001E-001	0.00000E+000	9	...........	1368.00
	251	0.0504	5.70426E-001	-2.14619E-004	0.00000E+000	5.70003E-001	0.00000E+000	9	...........	1368.00
	252	0.0506	5.60434E-001	-2.19519E-004	0.00000E+000	5.60006E-001	0.00000E+000	9	...........	1368.00
	253	0.0508	5.50441E-001	-2.24046E-004	0.00000E+000	5.50008E-001	0.00000E+000	9	...........	1368.00
	254	0.051	5.40468E-001	-2.28302E-004	0.00000E+000	5.40011E-001	0.00000E+000	9	...........	1368.00
	255	0.0512	5.30456E-001	-2.32438E-004	0.00000E+000	5.30013E-001	0.00000E+000	9	...........	1368.00
	256	0.0514	5.20463E-001	-2.36401E-004	0.00000E+000	5.20016E-001	0.00000E+000	9	...........	1368.00
	257	0.0516	5.10430E-001	-2.40250E-004	0.00000E+000	5.10018E-001	0.00000E+000	9	...........	1368.00
	258	0.0518	5.00468E-001	-2.44062E-004	0.00000E+000	5.00021E-001	0.00000E+000	9	...........	1368.00
	259	0.052	4.90475E-001	-2.47982E-004	0.00000E+000	4.90024E-001	0.00000E+000	9	...........	1368.00
	260	0.0522	4.80412E-001	-2.52331E-004	0.00000E+000	4.79976E-001	0.00000E+000	9	...........	1368.00
	261	0.0524	4.70400E-001	-2.56284E-004	0.00000E+000	4.69979E-001	0.00000E+000	9	...........	1368.00
	262	0.0526	4.60417E-001	-2.60557E-004	0.00000E+000	4.59981E-001	0.00000E+000	9	...........	1368.00
	263	0.0528	4.50404E-001	-2.64903E-004	0.00000E+000	4.49984E-001	0.00000E+000	9	...........	1368.00
	264	0.053	4.40411E-001	-2.69496E-004	0.00000E+000	4.39986E-001	0.00000E+000	9	...........	1368.00
	265	0.0532	4.30399E-001	-2.74219E-004	0.00000E+000	4.29989E-001	0.00000E+000	9	...........	1368.00
	266	0.0534	4.20416E-001	-2.79126E-004	0.00000E+000	4.19991E-001	0.00000E+000	9	...........	1368.00
	267	0.0536	4.10433E-001	-2.84179E-004	0.00000E+000	4.09994E-001	0.00000E+000	9	...........	1368.00
	268	0.0538	4.00421E-001	-2.89413E-004	0.00000E+000	3.99997E-001	0.00000E+000	9	...........	1368.00
	269	0.054	3.90438E-001	-2.94569E-004	0.00000E+000	3.89999E-001	0.00000E+000	9	...........	1368.00
	270	0.0542	3.80405E-001	-2.99966E-004	0.00000E+000	3.80002E-001	0.00000E+000	9	...........	1368.00
	271	0.0544	3.70423E-001	-3.05180E-004	0.00000E+000	3.70004E-001	0.00000E+000	9	...........	1368.00
	272	0.0546	3.60460E-001	-3.10310E-004	0.00000E+000	3.60007E-001	0.00000E+000	9	...........	1368.00
	273	0.0548	3.50457E-001	-3.15507E-004	0.00000E+000	3.50009E-001	0.00000E+000	9	...........	1368.00
	274	0.055	3.40425E-001	-3.20390E-004	0.00000E+000	3.40012E-001	0.00000E+000	9	...........	1368.00
	275	0.0552	3.30482E-001	-3.24880E-004	0.00000E+000	3.30014E-001	0.00000E+000	9	...........	1368.00
	276	0.0554	3.20439E-001	-3.29062E-004	0.00000E+000	3.20017E-001	0.00000E+000	9	...........	1368.00
	277	0.0556	3.10436E-001	-3.32745E-004	0.00000E+000	3.10020E-001	0.00000E+000	9	...........	1368.00
	278	0.0558	3.00484E-001	-3.35830E-004	0.00000E+000	3.00022E-001	0.00000E+000	9	...........	1368.00
	279	0.056	2.90491E-001	-3.38639E-004	0.00000E+000	2.90025E-001	0.00000E+000	9	...........	1368.00
	280	0.0562	2.80428E-001	-3.41411E-004	0.00000E+000	2.79977E-001	0.00000E+000	9	...........	1368.00
	281	0.0564	2.70376E-001	-3.43379E-004	0.00000E+000	2.69980E-001	0.00000E+000	9	...........	1368.00
	282	0.0566	2.60383E-001	-3.45010E-004	0.00000E+000	2.59982E-001	0.00000E+000	9	...........	1368.00
	283	0.0568	2.50410E-001	-3.46251E-004	0.00000E+000	2.49985E-001	0.00000E+000	9	...........	1368.00
	284	0.057	2.40418E-001	-3.47188E-004	0.00000E+000	2.39988E-001	0.00000E+000	9	...........	1368.00
	285	0.0572	2.30405E-001	-3.47632E-004	0.00000E+000	2.29990E-001	0.00000E+000	9	...........	1368.00
	286	0.0574	2.20402E-001	-3.47488E-004	0.00000E+000	2.19993E-001	0.00000E+000	9	...........	1368.00
	287	0.0576	2.10409E-001	-3.46971E-004	0.00000E+000	2.09995E-001	0.00000E+000	9	...........	1368.00
	288	0.0578	2.00417E-001	-3.46024E-004	0.00000E+000	1.99998E-001	0.00000E+000	9	...........	1368.00
	289	0.058	1.90414E-001	-3.44610E-004	0.00000E+000	1.90000E-001	0.00000E+000	9	...........	1368.00
	290	0.0582	1.80391E-001	-3.42918E-004	0.00000E+000	1.80003E-001	0.00000E+000	9	...........	1368.00
	291	0.0584	1.70449E-001	-3.40980E-004	0.00000E+000	1.70005E-001	0.00000E+000	9	...........	1368.00
	292	0.0586	1.60386E-001	-3.38889E-004	0.00000E+000	1.60008E-001	0.00000E+000	9	...........	1368.00
	293	0.0588	1.50443E-001	-3.36354E-004	0.00000E+000	1.50011E-001	0.00000E+000	9	...........	1368.00
	294	0.059	1.40371E-001	-3.33132E-004	0.00000E+000	1.40013E-001	0.00000E+000	9	...........	1368.00
	295	0.0592	1.30408E-001	-3.28799E-004	0.00000E+000	1.30016E-001	0.00000E+000	9	...........	1368.00
	296	0.0594	1.20425E-001	-3.23452E-004	0.00000E+000	1.20018E-001	0.00000E+000	9	...........	1368.00
	297	0.0596	1.10393E-001	-3.17121E-004	0.00000E+000	1.10021E-001	0.00000E+000	9	...........	1368.00
	298	0.0598	1.00430E-001	-3.10193E-004	0.00000E+000	1.00023E-001	0.00000E+000	9	...........	1368.00
	299	0.06	9.03871E-002	-3.03339E-004	0.00000E+000	9.00259E-002	0.00000E+000	9	...........	1368.00
	300	0.0602	8.03444E-002	-2.96768E-004	0.00000E+000	7.99785E-002	0.00000E+000	9	...........	1368.00
	301	0.0604	7.03117E-002	-2.90293E-004	0.00000E+000	6.99811E-002	0.00000E+000	9	...........	1368.00
	302	0.0606	6.03090E-002	-2.84376E-004	0.00000E+000	5.99836E-002	0.00000E+000	9	...........	1368.00
	303	0.0608	5.03464E-002	-2.78922E-004	0.00000E+000	4.99862E-002	0.00000E+000	9	...........	1368.00
	304	0.061	4.03137E-002	-2.74149E-004	0.00000E+000	3.99887E-002	0.00000E+000	9	...........	1368.00
	305	0.0612	3.03610E-002	-2.69916E-004	0.00000E+000	2.99913E-002	0.00000E+000	9	...........	1368.00
	306	0.0614	2.03483E-002	-2.66434E-004	0.00000E+000	1.99939E-002	0.00000E+000	9	...........	1368.00
	307	0.0616	1.03356E-002	-2.63385E-004	0.00000E+000	9.99641E-003	0.00000E+000	9	...........	1368.00
	308	0.0618	3.62898E-004	-2.60940E-004	0.00000E+000	-1.02818E-006	0.00000E+000	9	...........	1368.00
	309	0.062	-9.63980E-003	-2.58886E-004	0.00000E+000	-9.99847E-003	0.00000E+000	9	...........	1368.00
	310	0.0622	-1.96325E-002	-2.57511E-004	0.00000E+000	-1.99959E-002	0.00000E+000	9	...........	1368.00
	311	0.0624	-2.96752E-002	-2.56561E-004	0.00000E+000	-2.99934E-002	0.00000E+000	9	...........	1368.00
	312	0.0626	-3.96379E-002	-2.56097E-004	0.00000E+000	-3.99908E-002	0.00000E+000	9	...........	1368.00
	313	0.0628	-4.96206E-002	-2.56014E-004	0.00000E+000	-4.99882E-002	0.00000E+000	9	...........	1368.00
	314	0.063	-5.96633E-002	-2.56874E-004	0.00000E+000	-5.99857E-002	0.00000E+000	9	...........	1368.00
	315	0.0632	-6.96260E-002	-2.57801E-004	0.00000E+000	-6.99831E-002	0.00000E+000	9	...........	1368.00
	316	0.0634	-7.96086E-002	-2.59229E-004	0.00000E+000	-7.99806E-002	0.00000E+000	9	...........	1368.00
	317	0.0636	-8.96113E-002	-2.60523E-004	0.00000E+000	-8.99780E-002	0.00000E+000	9	...........	1368.00
	318	0.0638	-9.96240E-002	-2.61707E-004	0.00000E+000	-9.99754E-002	0.00000E+000	9	...........	1368.00
	319	0.064	-1.09637E-001	-2.62888E-004	0.00000E+000	-1.10023E-001	0.00000E+000	9	...........	1368.00
	320	0.0642	-1.19649E-001	-2.63675E-004	0.00000E+000	-1.20020E-001	0.00000E+000	9	...........	1368.00
	321	0.0644	-1.29672E-001	-2.64469E-004	0.00000E+000	-1.30018E-001	0.00000E+000	9	...........	1368.00
	322	0.0646	-1.39675E-001	-2.65427E-004	0.00000E+000	-1.40015E-001	0.00000E+000	9	...........	1368.00
	323	0.0648	-1.49658E-001	-2.66404E-004	0.00000E+000	-1.50013E-001	0.00000E+000	9	...........	1368.00
	324	0.065	-1.59660E-001	-2.67708E-004	0.00000E+000	-1.60010E-001	0.00000E+000	9	...........	1368.00
	325	0.0652	-1.69633E-001	-2.69109E-004	0.00000E+000	-1.70007E-001	0.00000E+000	9	...........	1368.00
	326	0.0654	-1.79686E-001	-2.70583E-004	0.00000E+000	-1.80005E-001	0.00000E+000	9	...........	1368.00
	327	0.0656	-1.89658E-001	-2.72094E-004	0.00000E+000	-1.90002E-001	0.00000E+000	9	...........	1368.00
	328	0.0658	-1.99671E-001	-2.73852E-004	0.00000E+000	-2.00000E-001	0.00000E+000	9	...........	1368.00
	329	0.066	-2.09664E-001	-2.75680E-004	0.00000E+000	-2.09997E-001	0.00000E+000	9	...........	1368.00
	330	0.0662	-2.19646E-001	-2.77528E-004	0.00000E+000	-2.19995E-001	0.00000E+000	9	...........	1368.00
	331	0.0664	-2.29649E-001	-2.79586E-004	0.00000E+000	-2.29992E-001	0.00000E+000	9	...........	1368.00
	332	0.0666	-2.39622E-001	-2.81721E-004	0.00000E+000	-2.39990E-001	0.00000E+000	9	...........	1368.00
	333	0.0668	-2.49634E-001	-2.83942E-004	0.00000E+000	-2.49987E-001	0.00000E+000	9	...........	1368.00
	334	0.067	-2.59647E-001	-2.86264E-004	0.00000E+000	-2.59984E-001	0.00000E+000	9	...........	1368.00
	335	0.0672	-2.69610E-001	-2.88585E-004	0.00000E+000	-2.69982E-001	0.00000E+000	9	...........	1368.00
	336	0.0674	-2.79642E-001	-2.91140E-004	0.00000E+000	-2.79979E-001	0.00000E+000	9	...........	1368.00
	337	0.0676	-2.89605E-001	-2.93552E-004	0.00000E+000	-2.89977E-001	0.00000E+000	9	...........	1368.00
	338	0.0678	-2.99618E-001	-2.96034E-004	0.00000E+000	-2.99974E-001	0.00000E+000	9	...........	1368.00
	339	0.068	-3.09671E-001	-2.98435E-004	0.00000E+000	-3.10022E-001	0.00000E+000	9	...........	1368.00
	340	0.0682	-3.19673E-001	-3.00497E-004	0.00000E+000	-3.20019E-001	0.00000E+000	9	...........	1368.00
	341	0.0684	-3.29696E-001	-3.02178E-004	0.00000E+000	-3.30017E-001	0.00000E+000	9	...........	1368.00
	342	0.0686	-3.39709E-001	-3.03545E-004	0.00000E+000	-3.40014E-001	0.00000E+000	9	...........	1368.00
	343	0.0688	-3.49631E-001	-3.04236E-004	0.00000E+000	-3.50011E-001	0.00000E+000	9	...........	1368.00
	344	0.069	-3.59644E-001	-3.04810E-004	0.00000E+000	-3.60009E-001	0.00000E+000	9	...........	1368.00
	345	0.0692	-3.69617E-001	-3.04686E-004	0.00000E+000	-3.70006E-001	0.00000E+000	9	...........	1368.00
	346	0.0694	-3.79629E-001	-3.04109E-004	0.00000E+000	-3.80004E-001	0.00000E+000	9	...........	1368.00
	347	0.0696	-3.89672E-001	-3.02825E-004	0.00000E+000	-3.90001E-001	0.00000E+000	9	...........	1368.00
	348	0.0698	-3.99695E-001	-3.01097E-004	0.00000E+000	-3.99999E-001	0.00000E+000	9	...........	1368.00
	349	0.07	-4.09668E-001	-2.98766E-004	0.00000E+000	-4.09996E-001	0.00000E+000	9	...........	1368.00
	350	0.0702	-4.19670E-001	-2.95790E-004	0.00000E+000	-4.19994E-001	0.00000E+000	9	...........	1368.00
	351	0.0704	-4.29653E-001	-2.92471E-004	0.00000E+000	-4.29991E-001	0.00000E+000	9	...........	1368.00
	352	0.0706	-4.39676E-001	-2.88672E-004	0.00000E+000	-4.39988E-001	0.00000E+000	9	...........	1368.00
	353	0.0708	-4.49628E-001	-2.84336E-004	0.00000E+000	-4.49986E-001	0.00000E+000	9	...........	1368.00
	354	0.071	-4.59671E-001	-2.79689E-004	0.00000E+000	-4.59983E-001	0.00000E+000	9	...........	1368.00
	355	0.0712	-4.69674E-001	-2.74666E-004	0.00000E+000	-4.69981E-001	0.00000E+000	9	...........	1368.00
	356	0.0714	-4.79696E-001	-2.69286E-004	0.00000E+000	-4.79978E-001	0.00000E+000	9	...........	1368.00
	357	0.0716	-4.89679E-001	-2.63589E-004	0.00000E+000	-4.89976E-001	0.00000E+000	9	...........	1368.00
	358	0.0718	-4.99652E-001	-2.57601E-004	0.00000E+000	-4.99973E-001	0.00000E+000	9	...........	1368.00
	359	0.072	-5.09534E-001	-2.51064E-004	0.00000E+000	-5.10020E-001	0.00000E+000	9	...........	1368.00
	360	0.0722	-5.19687E-001	-2.45453E-004	0.00000E+000	-5.20018E-001	0.00000E+000	9	...........	1368.00
	361	0.0724	-5.29680E-001	-2.38765E-004	0.00000E+000	-5.30015E-001	0.00000E+000	9	...........	1368.00
	362	0.0726	-5.39723E-001	-2.32221E-004	0.00000E+000	-5.40013E-001	0.00000E+000	9	...........	1368.00
	363	0.0728	-5.49705E-001	-2.25600E-004	0.00000E+000	-5.50010E-001	0.00000E+000	9	...........	1368.00
	364	0.073	-5.59708E-001	-2.19196E-004	0.00000E+000	-5.60008E-001	0.00000E+000	9	...........	1368.00
	365	0.0732	-5.69691E-001	-2.12968E-004	0.00000E+000	-5.70005E-001	0.00000E+000	9	...........	1368.00
	366	0.0734	-5.79693E-001	-2.07028E-004	0.00000E+000	-5.80003E-001	0.00000E+000	9	...........	1368.00
	367	0.0736	-5.89706E-001	-2.01280E-004	0.00000E+000	-5.90000E-001	0.00000E+000	9	...........	1368.00
	368	0.0738	-5.99699E-001	-1.95820E-004	0.00000E+000	-5.99997E-001	0.00000E+000	9	...........	1368.00
	369	0.074	-5.90586E-001	-7.84049E-005	0.00000E+000	-5.90000E-001	0.00000E+000	9	...........	1368.00
	370	0.0742	-5.80504E-001	-1.31546E-005	0.00000E+000	-5.80003E-001	0.00000E+000	9	...........	1368.00
	371	0.0744	-5.70461E-001	2.53812E-005	0.00000E+000	-5.70005E-001	0.00000E+000	9	...........	1368.00
	372	0.0746	-5.60458E-001	5.04779E-005	0.00000E+000	-5.60008E-001	0.00000E+000	9	...........	1368.00
	373	0.0748	-5.50465E-001	6.81531E-005	0.00000E+000	-5.50010E-001	0.00000E+000	9	...........	1368.00
	374	0.075	-5.40413E-001	8.15754E-005	0.00000E+000	-5.40013E-001	0.00000E+000	9	...........	1368.00
	375	0.0752	-5.30450E-001	9.23359E-005	0.00000E+000	-5.30015E-001	0.00000E+000	9	...........	1368.00
	376	0.0754	-5.20397E-001	1.01469E-004	0.00000E+000	-5.20018E-001	0.00000E+000	9	...........	1368.00
	377	0.0756	-5.10435E-001	1.09337E-004	0.00000E+000	-5.10020E-001	0.00000E+000	9	...........	1368.00
	378	0.0758	-5.00412E-001	1.17086E-004	0.00000E+000	-4.99973E-001	0.00000E+000	9	...........	1368.00
	379	0.076	-4.90409E-001	1.23840E-004	0.00000E+000	-4.89976E-001	0.00000E+000	9	...........	1368.00
	380	0.0762	-4.80377E-001	1.30328E-004	0.00000E+000	-4.79978E-001	0.00000E+000	9	...........	1368.00
	381	0.0764	-4.70434E-001	1.36505E-004	0.00000E+000	-4.69981E-001	0.00000E+000	9	...........	1368.00
	382	0.0766	-4.60381E-001	1.42506E-004	0.00000E+000	-4.59983E-001	0.00000E+000	9	...........	1368.00
	383	0.0768	-4.50368E-001	1.48413E-004	0.00000E+000	-4.49986E-001	0.00000E+000	9	...........	1368.00
	384	0.077	-4.40406E-001	1.54134E-004	0.00000E+000	-4.39988E-001	0.00000E+000	9	...........	1368.00
	385	0.0772	-4.30373E-001	1.59738E-004	0.00000E+000	-4.29991E-001	0.00000E+000	9	...........	1368.00
	386	0.0774	-4.20350E-001	1.65335E-004	0.00000E+000	-4.19994E-001	0.00000E+000	9	...........	1368.00
	387	0.0776	-4.10378E-001	1.70688E-004	0.00000E+000	-4.09996E-001	0.00000E+000	9	...........	1368.00
	388	0.0778	-4.00375E-001	1.75932E-004	0.00000E+000	-3.99999E-001	0.00000E+000	9	...........	1368.00
	389	0.078	-3.90392E-001	1.80999E-004	0.00000E+000	-3.90001E-001	0.00000E+000	9	...........	1368.00
	390	0.0782	-3.80420E-001	1.86109E-004	0.00000E+000	-3.80004E-001	0.00000E+000	9	...........	1368.00
	391	0.0784	-3.70417E-001	1.90925E-004	0.00000E+000	-3.70006E-001	0.00000E+000	9	...........	1368.00
	392	0.0786	-3.60434E-001	1.95615E-004	0.00000E+000	-3.60009E-001	0.00000E+000	9	...........	1368.00
	393	0.0788	-3.50442E-001	2.00021E-004	0.00000E+000	-3.50011E-001	0.00000E+000	9	...........	1368.00
	394	0.079	-3.40429E-001	2.04374E-004	0.00000E+000	-3.40014E-001	0.00000E+000	9	...........	1368.00
	395	0.0792	-3.30426E-001	2.08360E-004	0.00000E+000	-3.30017E-001	0.00000E+000	9	...........	1368.00
	396	0.0794	-3.20433E-001	2.12326E-004	0.00000E+000	-3.20019E-001	0.00000E+000	9	...........	1368.00
	397	0.0796	-3.10401E-001	2.16075E-004	0.00000E+000	-3.10022E-001	0.00000E+000	9	...........	1368.00
	398	0.0798	-3.00338E-001	2.19794E-004	0.00000E+000	-2.99974E-001	0.00000E+000	9	...........	1368.00
	399	0.08	-2.90405E-001	2.23133E-004	0.00000E+000	-2.89977E-001	0.00000E+000	9	...........	1368.00
	400	0.0802	-2.80383E-001	2.26342E-004	0.00000E+000	-2.79979E-001	0.00000E+000	9	...........	1368.00
	401	0.0804	-2.70420E-001	2.29478E-004	0.00000E+000	-2.69982E-001	0.00000E+000	9	...........	1368.00
	402	0.0806	-2.60357E-001	2.32506E-004	0.00000E+000	-2.59984E-001	0.00000E+000	9	...........	1368.00
	403	0.0808	-2.50405E-001	2.35168E-004	0.00000E+000	-2.49987E-001	0.00000E+000	9	...........	1368.00
	404	0.081	-2.40392E-001	2.37993E-004	0.00000E+000	-2.39990E-001	0.00000E+000	9	...........	1368.00
	405	0.0812	-2.30339E-001	2.40455E-004	0.00000E+000	-2.29992E-001	0.00000E+000	9	...........	1368.00
	406	0.0814	-2.20407E-001	2.42817E-004	0.00000E+000	-2.19995E-001	0.00000E+000	9	...........	1368.00
	407	0.0816	-2.10384E-001	2.45045E-004	0.00000E+000	-2.09997E-001	0.00000E+000	9	...........	1368.00
	408	0.0818	-2.00411E-001	2.47166E-004	0.00000E+000	-2.00000E-001	0.00000E+000	9	...........	1368.00
	409	0.082	-1.90418E-001	2.49027E-004	0.00000E+000	-1.90002E-001	0.00000E+000	9	...........	1368.00
	410	0.0822	-1.80356E-001	2.50738E-004	0.00000E+000	-1.80005E-001	0.00000E+000	9	...........	1368.00
	411	0.0824	-1.70393E-001	2.52266E-004	0.00000E+000	-1.70007E-001	0.00000E+000	9	...........	1368.00
	412	0.0826	-1.60390E-001	2.53577E-004	0.00000E+000	-1.60010E-001	0.00000E+000	9	...........	1368.00
	413	0.0828	-1.50428E-001	2.54861E-004	0.00000E+000	-1.50013E-001	0.00000E+000	9	...........	1368.00
	414	0.083	-1.40385E-001	2.55795E-004	0.00000E+000	-1.40015E-001	0.00000E+000	9	...........	1368.00
	415	0.0832	-1.30402E-001	2.56559E-004	0.00000E+000	-1.30018E-001	0.00000E+000	9	...........	1368.00
	416	0.0834	-1.20420E-001	2.57163E-004	0.00000E+000	-1.20020E-001	0.00000E+000	9	...........	1368.00
	417	0.0836	-1.10417E-001	2.57586E-004	0.00000E+000	-1.10023E-001	0.00000E+000	9	...........	1368.00
	418	0.0838	-1.00384E-001	2.57933E-004	0.00000E+000	-9.99754E-002	0.00000E+000	9	...........	1368.00
	419	0.084	-9.03415E-002	2.57993E-004	0.00000E+000	-8.99780E-002	0.00000E+000	9	...........	1368.00
	420	0.0842	-8.03488E-002	2.57780E-004	0.00000E+000	-7.99806E-002	0.00000E+000	9	...........	1368.00
	421	0.0844	-7.03561E-002	2.57646E-004	0.00000E+000	-6.99831E-002	0.00000E+000	9	...........	1368.00
	422	0.0846	-6.03635E-002	2.57473E-004	0.00000E+000	-5.99857E-002	0.00000E+000	9	...........	1368.00
	423	0.0848	-5.03808E-002	2.57256E-004	0.00000E+000	-4.99882E-002	0.00000E+000	9	...........	1368.00
	424	0.085	-4.03581E-002	2.57163E-004	0.00000E+000	-3.99908E-002	0.00000E+000	9	...........	1368.00
	425	0.0852	-3.04054E-002	2.57189E-004	0.00000E+000	-2.99934E-002	0.00000E+000	9	...........	1368.00
	426	0.0854	-2.03227E-002	2.57570E-004	0.00000E+000	-1.99959E-002	0.00000E+000	9	...........	1368.00
	427	0.0856	-1.03700E-002	2.58130E-004	0.00000E+000	-9.99847E-003	0.00000E+000	9	...........	1368.00
	428	0.0858	-3.77302E-004	2.58991E-004	0.00000E+000	-1.02818E-006	0.00000E+000	9	...........	1368.00
	429	0.086	9.63539E-003	2.60151E-004	0.00000E+000	9.99641E-003	0.00000E+000	9	...........	1368.00
	430	0.0862	1.96481E-002	2.61299E-004	0.00000E+000	1.99939E-002	0.00000E+000	9	...........	1368.00
	431	0.0864	2.96108E-002	2.62086E-004	0.00000E+000	2.99913E-002	0.00000E+000	9	...........	1368.00
	432	0.0866	3.96035E-002	2.62636E-004	0.00000E+000	3.99887E-002	0.00000E+000	9	...........	1368.00
	433	0.0868	4.95762E-002	2.62800E-004	0.00000E+000	4.99862E-002	0.00000E+000	9	...........	1368.00
	434	0.087	5.96389E-002	2.62947E-004	0.00000E+000	5.99836E-002	0.00000E+000	9	...........	1368.00
	435	0.0872	6.96416E-002	2.62943E-004	0.00000E+000	6.99811E-002	0.00000E+000	9	...........	1368.00
	436	0.0874	7.96442E-002	2.63097E-004	0.00000E+000	7.99785E-002	0.00000E+000	9	...........	1368.00
	437	0.0876	8.96469E-002	2.63791E-004	0.00000E+000	9.00259E-002	0.00000E+000	9	...........	1368.00
	438	0.0878	9.96296E-002	2.64311E-004	0.00000E+000	1.00023E-001	0.00000E+000	9	...........	1368.00
	439	0.088	1.09662E-001	2.65131E-004	0.00000E+000	1.10021E-001	0.00000E+000	9	...........	1368.00
	440	0.0882	1.19715E-001	2.66439E-004	0.00000E+000	1.20018E-001	0.00000E+000	9	...........	1368.00
	441	0.0884	1.29648E-001	2.67693E-004	0.00000E+000	1.30016E-001	0.00000E+000	9	...........	1368.00
	442	0.0886	1.39650E-001	2.69608E-004	0.00000E+000	1.40013E-001	0.00000E+000	9	...........	1368.00
	443	0.0888	1.49653E-001	2.71579E-004	0.00000E+000	1.50011E-001	0.00000E+000	9	...........	1368.00
	444	0.089	1.59636E-001	2.73997E-004	0.00000E+000	1.60008E-001	0.00000E+000	9	...........	1368.00
	445	0.0892	1.69648E-001	2.76649E-004	0.00000E+000	1.70005E-001	0.00000E+000	9	...........	1368.00
	446	0.0894	1.79691E-001	2.79604E-004	0.00000E+000	1.80003E-001	0.00000E+000	9	...........	1368.00
	447	0.0896	1.89634E-001	2.82837E-004	0.00000E+000	1.90000E-001	0.00000E+000	9	...........	1368.00
	448	0.0898	1.99667E-001	2.86579E-004	0.00000E+000	1.99998E-001	0.00000E+000	9	...........	1368.00
	449	0.09	2.09599E-001	2.90648E-004	0.00000E+000	2.09995E-001	0.00000E+000	9	...........	1368.00
	450	0.0902	2.19642E-001	2.95312E-004	0.00000E+000	2.19993E-001	0.00000E+000	9	...........	1368.00
	451	0.0904	2.29585E-001	3.00375E-004	0.00000E+000	2.29990E-001	0.00000E+000	9	...........	1368.00
	452	0.0906	2.39607E-001	3.06189E-004	0.00000E+000	2.39988E-001	0.00000E+000	9	...........	1368.00
	453	0.0908	2.49610E-001	3.12657E-004	0.00000E+000	2.49985E-001	0.00000E+000	9	...........	1368.00
	454	0.091	2.59603E-001	3.19668E-004	0.00000E+000	2.59982E-001	0.00000E+000	9	...........	1368.00
	455	0.0912	2.69635E-001	3.26693E-004	0.00000E+000	2.69980E-001	0.00000E+000	9	...........	1368.00
	456	0.0914	2.79608E-001	3.33574E-004	0.00000E+000	2.79977E-001	0.00000E+000	9	...........	1368.00
	457	0.0916	2.89661E-001	3.40098E-004	0.00000E+000	2.90025E-001	0.00000E+000	9	...........	1368.00
	458	0.0918	2.99704E-001	3.45769E-004	0.00000E+000	3.00022E-001	0.00000E+000	9	...........	1368.00
	459	0.092	3.09676E-001	3.50575E-004	0.00000E+000	3.10020E-001	0.00000E+000	9	...........	1368.00
	460	0.0922	3.19689E-001	3.54998E-004	0.00000E+000	3.20017E-001	0.00000E+000	9	...........	1368.00
	461	0.0924	3.29652E-001	3.58947E-004	0.00000E+000	3.30014E-001	0.00000E+000	9	...........	1368.00
	462	0.0926	3.39664E-001	3.62500E-004	0.00000E+000	3.40012E-001	0.00000E+000	9	...........	1368.00
	463	0.0928	3.49627E-001	3.65495E-004	0.00000E+000	3.50009E-001	0.00000E+000	9	...........	1368.00
	464	0.093	3.59660E-001	3.67974E-004	0.00000E+000	3.60007E-001	0.00000E+000	9	...........	1368.00
	465	0.0932	3.69632E-001	3.69738E-004	0.00000E+000	3.70004E-001	0.00000E+000	9	...........	1368.00
	466	0.0934	3.79645E-001	3.70982E-004	0.00000E+000	3.80002E-001	0.00000E+000	9	...........	1368.00
	467	0.0936	3.89638E-001	3.71623E-004	0.00000E+000	3.89999E-001	0.00000E+000	9	...........	1368.00
	468	0.0938	3.99670E-001	3.71726E-004	0.00000E+000	3.99997E-001	0.00000E+000	9	...........	1368.00
	469	0.094	4.09633E-001	3.71286E-004	0.00000E+000	4.09994E-001	0.00000E+000	9	...........	1368.00
	470	0.0942	4.19686E-001	3.70445E-004	0.00000E+000	4.19991E-001	0.00000E+000	9	...........	1368.00
	471	0.0944	4.29639E-001	3.69108E-004	0.00000E+000	4.29989E-001	0.00000E+000	9	...........	1368.00
	472	0.0946	4.39651E-001	3.67436E-004	0.00000E+000	4.39986E-001	0.00000E+000	9	...........	1368.00
	473	0.0948	4.49604E-001	3.65609E-004	0.00000E+000	4.49984E-001	0.00000E+000	9	...........	1368.00
	474	0.095	4.59677E-001	3.63507E-004	0.00000E+000	4.59981E-001	0.00000E+000	9	...........	1368.00
	475	0.0952	4.69669E-001	3.61102E-004	0.00000E+000	4.69979E-001	0.00000E+000	9	...........	1368.00
	476	0.0954	4.79682E-001	3.58471E-004	0.00000E+000	4.79976E-001	0.00000E+000	9	...........	1368.00
	477	0.0956	4.89705E-001	3.55599E-004	0.00000E+000	4.90024E-001	0.00000E+000	9	...........	1368.00
	478	0.0958	4.99737E-001	3.52253E-004	0.00000E+000	5.00021E-001	0.00000E+000	9	...........	1368.00
	479	0.096	5.09710E-001	3.48154E-004	0.00000E+000	5.10018E-001	0.00000E+000	9	...........	1368.00
	480	0.0962	5.19683E-001	3.43774E-004	0.00000E+000	5.20016E-001	0.00000E+000	9	...........	1368.00
	481	0.0964	5.29665E-001	3.38977E-004	0.00000E+000	5.30013E-001	0.00000E+000	9	...........	1368.00
	482	0.0966	5.39718E-001	3.34034E-004	0.00000E+000	5.40011E-001	0.00000E+000	9	...........	1368.00
	483	0.0968	5.49701E-001	3.28824E-004	0.00000E+000	5.50008E-001	0.00000E+000	9	...........	1368.00
	484	0.097	5.59704E-001	3.23480E-004	0.00000E+000	5.60006E-001	0.00000E+000	9	...........	1368.00
	485	0.0972	5.69726E-001	3.17923E-004	0.00000E+000	5.70003E-001	0.00000E+000	9	...........	1368.00
	486	0.0974	5.79729E-001	3.12513E-004	0.00000E+000	5.80001E-001	0.00000E+000	9	...........	1368.00
	487	0.0976	5.89672E-001	3.06763E-004	0.00000E+000	5.89998E-001	0.00000E+000	9	...........	1368.00
	488	0.0978	5.99704E-001	3.01492E-004	0.00000E+000	5.99995E-001	0.00000E+000	9	...........	1368.00
	489	0.098	6.09747E-001	2.96222E-004	0.00000E+000	6.09993E-001	0.00000E+000	9	...........	1368.00
	490	0.0982	6.19690E-001	2.91145E-004	0.00000E+000	6.19990E-001	0.00000E+000	9	...........	1368.00
	491	0.0984	6.29692E-001	2.86299E-004	0.00000E+000	6.29988E-001	0.00000E+000	9	...........	1368.00
	492	0.0986	6.39695E-001	2.81769E-004	0.00000E+000	6.39985E-001	0.00000E+000	9	...........	1368.00
	493	0.0988	6.49718E-001	2.77556E-004	0.00000E+000	6.49983E-001	0.00000E+000	9	...........	1368.00
	494	0.099	6.59720E-001	2.73624E-004	0.00000E+000	6.59980E-001	0.00000E+000	9	...........	1368.00
	495	0.0992	6.69713E-001	2.69811E-004	0.00000E+000	6.69977E-001	0.00000E+000	9	...........	1368.00
	496	0.0994	6.79756E-001	2.66502E-004	0.00000E+000	6.80025E-001	0.00000E+000	9	...........	1368.00
	497	0.0996	6.89739E-001	2.62813E-004	0.00000E+000	6.90022E-001	0.00000E+000	9	...........	1368.00
	498	0.0998	6.99741E-001	2.59034E-004	0.00000E+000	7.00020E-001	0.00000E+000	9	...........	1368.00
	499	0.1	7.09754E-001	2.55035E-004	0.00000E+000	7.10017E-001	0.00000E+000	9	...........	1368.00
	500	0.1002	7.19757E-001	2.50835E-004	0.00000E+000	7.20015E-001	0.00000E+000	9	...........	1368.00
	501	0.1004	7.29779E-001	2.46546E-004	0.00000E+000	7.30012E-001	0.00000E+000	9	...........	1368.00
	502	0.1006	7.39732E-001	2.42363E-004	0.00000E+000	7.40010E-001	0.00000E+000	9	...........	1368.00
	503	0.1008	7.49765E-001	2.38253E-004	0.00000E+000	7.50007E-001	0.00000E+000	9	...........	1368.00
	504	0.101	7.59777E-001	2.34501E-004	0.00000E+000	7.60004E-001	0.00000E+000	9	...........	1368.00
	505	0.1012	7.69720E-001	2.30882E-004	0.00000E+000	7.70002E-001	0.00000E+000	9	...........	1368.00
	506	0.1014	7.79743E-001	2.27867E-004	0.00000E+000	7.79999E-001	0.00000E+000	9	...........	1368.00
	507	0.1016	7.89765E-001	2.25198E-004	0.00000E+000	7.89997E-001	0.00000E+000	9	...........	1368.00
	508	0.1018	7.99748E-001	2.23200E-004	0.00000E+000	7.99994E-001	0.00000E+000	9	...........	1368.00
CURVE3	TABLE
	Pt	T	Vf	Im	Vu	Sig	Ach	IERange	Over	Temp
	#	s	V vs. Ref.	A	V	V	V	#	bits	deg C
	509	0.102	7.90636E-001	1.09457E-004	0.00000E+000	7.89997E-001	0.00000E+000	9	...........	1368.00
	510	0.1022	7.80553E-001	4.12218E-005	0.00000E+000	7.79999E-001	0.00000E+000	9	...........	1368.00
	511	0.1024	7.70530E-001	-2.74097E-006	0.00000E+000	7.70002E-001	0.00000E+000	9	...........	1368.00
	512	0.1026	7.60498E-001	-3.32247E-005	0.00000E+000	7.60004E-001	0.00000E+000	9	...........	1368.00
	513	0.1028	7.50475E-001	-5.55229E-005	0.00000E+000	7.50007E-001	0.00000E+000	9	...........	1368.00
	514	0.103	7.40462E-001	-7.26343E-005	0.00000E+000	7.40010E-001	0.00000E+000	9	...........	1368.00
	515	0.1032	7.30480E-001	-8.63202E-005	0.00000E+000	7.30012E-001	0.00000E+000	9	...........	1368.00
	516	0.1034	7.20477E-001	-9.79346E-005	0.00000E+000	7.20015E-001	0.00000E+000	9	...........	1368.00
	517	0.1036	7.10474E-001	-1.08031E-004	0.00000E+000	7.10017E-001	0.00000E+000	9	...........	1368.00
	518	0.1038	7.00471E-001	-1.17364E-004	0.00000E+000	7.00020E-001	0.00000E+000	9	...........	1368.00
	519	0.104	6.90479E-001	-1.26050E-004	0.00000E+000	6.90022E-001	0.00000E+000	9	...........	1368.00
	520	0.1042	6.80476E-001	-1.34472E-004	0.00000E+000	6.80025E-001	0.00000E+000	9	...........	1368.00
	521	0.1044	6.70433E-001	-1.42898E-004	0.00000E+000	6.69977E-001	0.00000E+000	9	...........	1368.00
	522	0.1046	6.60421E-001	-1.50910E-004	0.00000E+000	6.59980E-001	0.00000E+000	9	...........	1368.00
	523	0.1048	6.50448E-001	-1.58792E-004	0.00000E+000	6.49983E-001	0.00000E+000	9	...........	1368.00
	524	0.105	6.40465E-001	-1.66777E-004	0.00000E+000	6.39985E-001	0.00000E+000	9	...........	1368.00
	525	0.1052	6.30423E-001	-1.74626E-004	0.00000E+000	6.29988E-001	0.00000E+000	9	...........	1368.00
	526	0.1054	6.20460E-001	-1.82354E-004	0.00000E+000	6.19990E-001	0.00000E+000	9	...........	1368.00
	527	0.1056	6.10437E-001	-1.89866E-004	0.00000E+000	6.09993E-001	0.00000E+000	9	...........	1368.00
	528	0.1058	6.00435E-001	-1.97081E-004	0.00000E+000	5.99995E-001	0.00000E+000	9	...........	1368.00
	529	0.106	5.90452E-001	-2.03822E-004	0.00000E+000	5.89998E-001	0.00000E+000	9	...........	1368.00
	530	0.1062	5.80479E-001	-2.09983E-004	0.00000E+000	5.80001E-001	0.00000E+000	9	...........	1368.00
	531	0.1064	5.70496E-001	-2.15483E-004	0.00000E+000	5.70003E-001	0.00000E+000	9	...........	1368.00
	532	0.1066	5.60484E-001	-2.20523E-004	0.00000E+000	5.60006E-001	0.00000E+000	9	...........	1368.00
	533	0.1068	5.50471E-001	-2.25096E-004	0.00000E+000	5.50008E-001	0.00000E+000	9	...........	1368.00
	534	0.107	5.40468E-001	-2.29493E-004	0.00000E+000	5.40011E-001	0.00000E+000	9	...........	1368.00
	535	0.1072	5.30436E-001	-2.33725E-004	0.00000E+000	5.30013E-001	0.00000E+000	9	...........	1368.00
	536	0.1074	5.20453E-001	-2.37885E-004	0.00000E+000	5.20016E-001	0.00000E+000	9	...........	1368.00
	537	0.1076	5.10450E-001	-2.41864E-004	0.00000E+000	5.10018E-001	0.00000E+000	9	...........	1368.00
	538	0.1078	5.00518E-001	-2.45884E-004	0.00000E+000	5.00021E-001	0.00000E+000	9	...........	1368.00
	539	0.108	4.90505E-001	-2.49876E-004	0.00000E+000	4.90024E-001	0.00000E+000	9	...........	1368.00
	540	0.1082	4.80472E-001	-2.54493E-004	0.00000E+000	4.79976E-001	0.00000E+000	9	...........	1368.00
	541	0.1084	4.70440E-001	-2.58752E-004	0.00000E+000	4.69979E-001	0.00000E+000	9	...........	1368.00
	542	0.1086	4.60417E-001	-2.63242E-004	0.00000E+000	4.59981E-001	0.00000E+000	9	...........	1368.00
	543	0.1088	4.50444E-001	-2.67858E-004	0.00000E+000	4.49984E-001	0.00000E+000	9	...........	1368.00
	544	0.109	4.40451E-001	-2.72735E-004	0.00000E+000	4.39986E-001	0.00000E+000	9	...........	1368.00
	545	0.1092	4.30469E-001	-2.77715E-004	0.00000E+000	4.29989E-001	0.00000E+000	9	...........	1368.00
	546	0.1094	4.20446E-001	-2.83025E-004	0.00000E+000	4.19991E-001	0.00000E+000	9	...........	1368.00
	547	0.1096	4.10463E-001	-2.88422E-004	0.00000E+000	4.09994E-001	0.00000E+000	9	...........	1368.00
	548	0.1098	4.00441E-001	-2.93872E-004	0.00000E+000	3.99997E-001	0.00000E+000	9	...........	1368.00
	549	0.11	3.90488E-001	-2.99366E-004	0.00000E+000	3.89999E-001	0.00000E+000	9	...........	1368.00
	550	0.1102	3.80475E-001	-3.05023E-004	0.00000E+000	3.80002E-001	0.00000E+000	9	...........	1368.00
	551	0.1104	3.70483E-001	-3.10637E-004	0.00000E+000	3.70004E-001	0.00000E+000	9	...........	1368.00
	552	0.1106	3.60440E-001	-3.16147E-004	0.00000E+000	3.60007E-001	0.00000E+000	9	...........	1368.00
	553	0.1108	3.50497E-001	-3.21507E-004	0.00000E+000	3.50009E-001	0.00000E+000	9	...........	1368.00
	554	0.111	3.40454E-001	-3.26627E-004	0.00000E+000	3.40012E-001	0.00000E+000	9	...........	1368.00
	555	0.1112	3.30442E-001	-3.31414E-004	0.00000E+000	3.30014E-001	0.00000E+000	9	...........	1368.00
	556	0.1114	3.20449E-001	-3.35704E-004	0.00000E+000	3.20017E-001	0.00000E+000	9	...........	1368.00
	557	0.1116	3.10476E-001	-3.39473E-004	0.00000E+000	3.10020E-001	0.00000E+000	9	...........	1368.00
	558	0.1118	3.00444E-001	-3.42652E-004	0.00000E+000	3.00022E-001	0.00000E+000	9	...........	1368.00
	559	0.112	2.90501E-001	-3.45400E-004	0.00000E+000	2.90025E-001	0.00000E+000	9	...........	1368.00
	560	0.1122	2.80468E-001	-3.48159E-004	0.00000E+000	2.79977E-001	0.00000E+000	9	...........	1368.00
	561	0.1124	2.70446E-001	-3.50187E-004	0.00000E+000	2.69980E-001	0.00000E+000	9	...........	1368.00
	562	0.1126	2.60413E-001	-3.51828E-004	0.00000E+000	2.59982E-001	0.00000E+000	9	...........	1368.00
	563	0.1128	2.50390E-001	-3.52985E-004	0.00000E+000	2.49985E-001	0.00000E+000	9	...........	1368.00
	564	0.113	2.40408E-001	-3.53932E-004	0.00000E+000	2.39988E-001	0.00000E+000	9	...........	1368.00
	565	0.1132	2.30445E-001	-3.54243E-004	0.00000E+000	2.29990E-001	0.00000E+000	9	...........	1368.00
	566	0.1134	2.20442E-001	-3.54193E-004	0.00000E+000	2.19993E-001	0.00000E+000	9	...........	1368.00
	567	0.1136	2.10399E-001	-3.53592E-004	0.00000E+000	2.09995E-001	0.00000E+000	9	...........	1368.00
	568	0.1138	2.00427E-001	-3.52638E-004	0.00000E+000	1.99998E-001	0.00000E+000	9	...........	1368.00
	569	0.114	1.90414E-001	-3.51084E-004	0.00000E+000	1.90000E-001	0.00000E+000	9	...........	1368.00
	570	0.1142	1.80421E-001	-3.49406E-004	0.00000E+000	1.80003E-001	0.00000E+000	9	...........	1368.00
	571	0.1144	1.70439E-001	-3.47455E-004	0.00000E+000	1.70005E-001	0.00000E+000	9	...........	1368.00
	572	0.1146	1.60396E-001	-3.45273E-004	0.00000E+000	1.60008E-001	0.00000E+000	9	...........	1368.00
	573	0.1148	1.50453E-001	-3.42488E-004	0.00000E+000	1.50011E-001	0.00000E+000	9	...........	1368.00
	574	0.115	1.40431E-001	-3.38799E-004	0.00000E+000	1.40013E-001	0.00000E+000	9	...........	1368.00
	575	0.1152	1.30438E-001	-3.33766E-004	0.00000E+000	1.30016E-001	0.00000E+000	9	...........	1368.00
	576	0.1154	1.20425E-001	-3.27742E-004	0.00000E+000	1.20018E-001	0.00000E+000	9	...........	1368.00
	577	0.1156	1.10403E-001	-3.20630E-004	0.00000E+000	1.10021E-001	0.00000E+000	9	...........	1368.00
	578	0.1158	1.00380E-001	-3.13152E-004	0.00000E+000	1.00023E-001	0.00000E+000	9	...........	1368.00
	579	0.116	9.04272E-002	-3.05463E-004	0.00000E+000	9.00259E-002	0.00000E+000	9	...........	1368.00
	580	0.1162	8.03644E-002	-2.98545E-004	0.00000E+000	7.99785E-002	0.00000E+000	9	...........	1368.00
	581	0.1164	7.03617E-002	-2.91764E-004	0.00000E+000	6.99811E-002	0.00000E+000	9	...........	1368.00
	582	0.1166	6.03491E-002	-2.85550E-004	0.00000E+000	5.99836E-002	0.00000E+000	9	...........	1368.00
	583	0.1168	5.03664E-002	-2.80020E-004	0.00000E+000	4.99862E-002	0.00000E+000	9	...........	1368.00
	584	0.117	4.04137E-002	-2.75000E-004	0.00000E+000	3.99887E-002	0.00000E+000	9	...........	1368.00
	585	0.1172	3.03910E-002	-2.70773E-004	0.00000E+000	2.99913E-002	0.00000E+000	9	...........	1368.00
	586	0.1174	2.04083E-002	-2.67154E-004	0.00000E+000	1.99939E-002	0.00000E+000	9	...........	1368.00
	587	0.1176	1.03956E-002	-2.64046E-004	0.00000E+000	9.99641E-003	0.00000E+000	9	...........	1368.00
	588	0.1178	3.52895E-004	-2.61624E-004	0.00000E+000	-1.02818E-006	0.00000E+000	9	...........	1368.00
	589	0.118	-9.60979E-003	-2.59466E-004	0.00000E+000	-9.99847E-003	0.00000E+000	9	...........	1368.00
	590	0.1182	-1.96125E-002	-2.58038E-004	0.00000E+000	-1.99959E-002	0.00000E+000	9	...........	1368.00
	591	0.1184	-2.96552E-002	-2.57104E-004	0.00000E+000	-2.99934E-002	0.00000E+000	9	...........	1368.00
	592	0.1186	-3.96279E-002	-2.56657E-004	0.00000E+000	-3.99908E-002	0.00000E+000	9	...........	1368.00
	593	0.1188	-4.96006E-002	-2.56677E-004	0.00000E+000	-4.99882E-002	0.00000E+000	9	...........	1368.00
	594	0.119	-5.96133E-002	-2.57461E-004	0.00000E+000	-5.99857E-002	0.00000E+000	9	...........	1368.00
	595	0.1192	-6.96159E-002	-2.58405E-004	0.00000E+000	-6.99831E-002	0.00000E+000	9	...........	1368.00
	596	0.1194	-7.95886E-002	-2.59743E-004	0.00000E+000	-7.99806E-002	0.00000E+000	9	...........	1368.00
	597	0.1196	-8.96613E-002	-2.60884E-004	0.00000E+000	-8.99780E-002	0.00000E+000	9	...........	1368.00
	598	0.1198	-9.96340E-002	-2.61841E-004	0.00000E+000	-9.99754E-002	0.00000E+000	9	...........	1368.00
	599	0.12	-1.09637E-001	-2.62791E-004	0.00000E+000	-1.10023E-001	0.00000E+000	9	...........	1368.00
	600	0.1202	-1.19659E-001	-2.63512E-004	0.00000E+000	-1.20020E-001	0.00000E+000	9	...........	1368.00
	601	0.1204	-1.29662E-001	-2.64122E-004	0.00000E+000	-1.30018E-001	0.00000E+000	9	...........	1368.00
	602	0.1206	-1.39615E-001	-2.65203E-004	0.00000E+000	-1.40015E-001	0.00000E+000	9	...........	1368.00
	603	0.1208	-1.49658E-001	-2.66157E-004	0.00000E+000	-1.50013E-001	0.00000E+000	9	...........	1368.00
	604	0.121	-1.59640E-001	-2.67431E-004	0.00000E+000	-1.60010E-001	0.00000E+000	9	...........	1368.00
	605	0.1212	-1.69613E-001	-2.68826E-004	0.00000E+000	-1.70007E-001	0.00000E+000	9	...........	1368.00
	606	0.1214	-1.79636E-001	-2.70477E-004	0.00000E+000	-1.80005E-001	0.00000E+000	9	...........	1368.00
	607	0.1216	-1.89628E-001	-2.72054E-004	0.00000E+000	-1.90002E-001	0.00000E+000	9	...........	1368.00
	608	0.1218	-1.99601E-001	-2.73789E-004	0.00000E+000	-2.00000E-001	0.00000E+000	9	...........	1368.00
	609	0.122	-2.09624E-001	-2.75700E-004	0.00000E+000	-2.09997E-001	0.00000E+000	9	...........	1368.00
	610	0.1222	-2.19596E-001	-2.77701E-004	0.00000E+000	-2.19995E-001	0.00000E+000	9	...........	1368.00
	611	0.1224	-2.29669E-001	-2.79853E-004	0.00000E+000	-2.29992E-001	0.00000E+000	9	...........	1368.00
	612	0.1226	-2.39632E-001	-2.82074E-004	0.00000E+000	-2.39990E-001	0.00000E+000	9	...........	1368.00
	613	0.1228	-2.49624E-001	-2.84363E-004	0.00000E+000	-2.49987E-001	0.00000E+000	9	...........	1368.00
	614	0.123	-2.59657E-001	-2.86704E-004	0.00000E+000	-2.59984E-001	0.00000E+000	9	...........	1368.00
	615	0.1232	-2.69590E-001	-2.89032E-004	0.00000E+000	-2.69982E-001	0.00000E+000	9	...........	1368.00
	616	0.1234	-2.79572E-001	-2.91761E-004	0.00000E+000	-2.79979E-001	0.00000E+000	9	...........	1368.00
	617	0.1236	-2.89575E-001	-2.94126E-004	0.00000E+000	-2.89977E-001	0.00000E+000	9	...........	1368.00
	618	0.1238	-2.99598E-001	-2.96591E-004	0.00000E+000	-2.99974E-001	0.00000E+000	9	...........	1368.00
	619	0.124	-3.09631E-001	-2.99056E-004	0.00000E+000	-3.10022E-001	0.00000E+000	9	...........	1368.00
	620	0.1242	-3.19643E-001	-3.00940E-004	0.00000E+000	-3.20019E-001	0.00000E+000	9	...........	1368.00
	621	0.1244	-3.29646E-001	-3.02498E-004	0.00000E+000	-3.30017E-001	0.00000E+000	9	...........	1368.00
	622	0.1246	-3.39649E-001	-3.03782E-004	0.00000E+000	-3.40014E-001	0.00000E+000	9	...........	1368.00
	623	0.1248	-3.49621E-001	-3.04493E-004	0.00000E+000	-3.50011E-001	0.00000E+000	9	...........	1368.00
	624	0.125	-3.59644E-001	-3.04823E-004	0.00000E+000	-3.60009E-001	0.00000E+000	9	...........	1368.00
	625	0.1252	-3.69667E-001	-3.04423E-004	0.00000E+000	-3.70006E-001	0.00000E+000	9	...........	1368.00
	626	0.1254	-3.79689E-001	-3.03599E-004	0.00000E+000	-3.80004E-001	0.00000E+000	9	...........	1368.00
	627	0.1256	-3.89652E-001	-3.02018E-004	0.00000E+000	-3.90001E-001	0.00000E+000	9	...........	1368.00
	628	0.1258	-3.99625E-001	-3.00030E-004	0.00000E+000	-3.99999E-001	0.00000E+000	9	...........	1368.00
	629	0.126	-4.09628E-001	-2.97355E-004	0.00000E+000	-4.09996E-001	0.00000E+000	9	...........	1368.00
	630	0.1262	-4.19640E-001	-2.94116E-004	0.00000E+000	-4.19994E-001	0.00000E+000	9	...........	1368.00
	631	0.1264	-4.29663E-001	-2.90430E-004	0.00000E+000	-4.29991E-001	0.00000E+000	9	...........	1368.00
	632	0.1266	-4.39686E-001	-2.86257E-004	0.00000E+000	-4.39988E-001	0.00000E+000	9	...........	1368.00
	633	0.1268	-4.49648E-001	-2.81691E-004	0.00000E+000	-4.49986E-001	0.00000E+000	9	...........	1368.00
	634	0.127	-4.59671E-001	-2.76694E-004	0.00000E+000	-4.59983E-001	0.00000E+000	9	...........	1368.00
	635	0.1272	-4.69654E-001	-2.71247E-004	0.00000E+000	-4.69981E-001	0.00000E+000	9	...........	1368.00
	636	0.1274	-4.79656E-001	-2.65537E-004	0.00000E+000	-4.79978E-001	0.00000E+000	9	...........	1368.00
	637	0.1276	-4.89649E-001	-2.59543E-004	0.00000E+000	-4.89976E-001	0.00000E+000	9	...........	1368.00
	638	0.1278	-4.99662E-001	-2.53318E-004	0.00000E+000	-4.99973E-001	0.00000E+000	9	...........	1368.00
	639	0.128	-5.09674E-001	-2.47051E-004	0.00000E+000	-5.10020E-001	0.00000E+000	9	...........	1368.00
	640	0.1282	-5.19667E-001	-2.40310E-004	0.00000E+000	-5.20018E-001	0.00000E+000	9	...........	1368.00
	641	0.1284	-5.29730E-001	-2.33539E-004	0.00000E+000	-5.30015E-001	0.00000E+000	9	...........	1368.00
	642	0.1286	-5.39672E-001	-2.26884E-004	0.00000E+000	-5.40013E-001	0.00000E+000	9	...........	1368.00
	643	0.1288	-5.49685E-001	-2.20120E-004	0.00000E+000	-5.50010E-001	0.00000E+000	9	...........	1368.00
	644	0.129	-5.59698E-001	-2.13512E-004	0.00000E+000	-5.60008E-001	0.00000E+000	9	...........	1368.00
	645	0.1292	-5.69651E-001	-2.07128E-004	0.00000E+000	-5.70005E-001	0.00000E+000	9	...........	1368.00
	646	0.1294	-5.79723E-001	-2.00997E-004	0.00000E+000	-5.80003E-001	0.00000E+000	9	...........	1368.00
	647	0.1296	-5.89676E-001	-1.95050E-004	0.00000E+000	-5.90000E-001	0.00000E+000	9	...........	1368.00
	648	0.1298	-5.99659E-001	-1.89549E-004	0.00000E+000	-5.99997E-001	0.00000E+000	9	...........	1368.00
	649	0.13	-5.90596E-001	-7.23141E-005	0.00000E+000	-5.90000E-001	0.00000E+000	9	...........	1368.00
	650	0.1302	-5.80473E-001	-7.87440E-006	0.00000E+000	-5.80003E-001	0.00000E+000	9	...........	1368.00
	651	0.1304	-5.70441E-001	2.98408E-005	0.00000E+000	-5.70005E-001	0.00000E+000	9	...........	1368.00
	652	0.1306	-5.60428E-001	5.40837E-005	0.00000E+000	-5.60008E-001	0.00000E+000	9	...........	1368.00
	653	0.1308	-5.50405E-001	7.10750E-005	0.00000E+000	-5.50010E-001	0.00000E+000	9	...........	1368.00
	654	0.131	-5.40403E-001	8.39003E-005	0.00000E+000	-5.40013E-001	0.00000E+000	9	...........	1368.00
	655	0.1312	-5.30440E-001	9.42305E-005	0.00000E+000	-5.30015E-001	0.00000E+000	9	...........	1368.00
	656	0.1314	-5.20407E-001	1.02980E-004	0.00000E+000	-5.20018E-001	0.00000E+000	9	...........	1368.00
	657	0.1316	-5.10385E-001	1.10775E-004	0.00000E+000	-5.10020E-001	0.00000E+000	9	...........	1368.00
	658	0.1318	-5.00382E-001	1.18147E-004	0.00000E+000	-4.99973E-001	0.00000E+000	9	...........	1368.00
	659	0.132	-4.90379E-001	1.24781E-004	0.00000E+000	-4.89976E-001	0.00000E+000	9	...........	1368.00
	660	0.1322	-4.80377E-001	1.31075E-004	0.00000E+000	-4.79978E-001	0.00000E+000	9	...........	1368.00
	661	0.1324	-4.70414E-001	1.37099E-004	0.00000E+000	-4.69981E-001	0.00000E+000	9	...........	1368.00
	662	0.1326	-4.60351E-001	1.43050E-004	0.00000E+000	-4.59983E-001	0.00000E+000	9	...........	1368.00
	663	0.1328	-4.50408E-001	1.48860E-004	0.00000E+000	-4.49986E-001	0.00000E+000	9	...........	1368.00
	664	0.133	-4.40396E-001	1.54551E-004	0.00000E+000	-4.39988E-001	0.00000E+000	9	...........	1368.00
	665	0.1332	-4.30393E-001	1.60011E-004	0.00000E+000	-4.29991E-001	0.00000E+000	9	...........	1368.00
	666	0.1334	-4.20360E-001	1.65542E-004	0.00000E+000	-4.19994E-001	0.00000E+000	9	...........	1368.00
	667	0.1336	-4.10348E-001	1.70805E-004	0.00000E+000	-4.09996E-001	0.00000E+000	9	...........	1368.00
	668	0.1338	-4.00385E-001	1.76119E-004	0.00000E+000	-3.99999E-001	0.00000E+000	9	...........	1368.00
	669	0.134	-3.90392E-001	1.81182E-004	0.00000E+000	-3.90001E-001	0.00000E+000	9	...........	1368.00
	670	0.1342	-3.80380E-001	1.86202E-004	0.00000E+000	-3.80004E-001	0.00000E+000	9	...........	1368.00
	671	0.1344	-3.70407E-001	1.90962E-004	0.00000E+000	-3.70006E-001	0.00000E+000	9	...........	1368.00
	672	0.1346	-3.60414E-001	1.95642E-004	0.00000E+000	-3.60009E-001	0.00000E+000	9	...........	1368.00
	673	0.1348	-3.50412E-001	2.00055E-004	0.00000E+000	-3.50011E-001	0.00000E+000	9	...........	1368.00
	674	0.135	-3.40419E-001	2.04367E-004	0.00000E+000	-3.40014E-001	0.00000E+000	9	...........	1368.00
	675	0.1352	-3.30346E-001	2.08460E-004	0.00000E+000	-3.30017E-001	0.00000E+000	9	...........	1368.00
	676	0.1354	-3.20373E-001	2.12393E-004	0.00000E+000	-3.20019E-001	0.00000E+000	9	...........	1368.00
	677	0.1356	-3.10391E-001	2.16032E-004	0.00000E+000	-3.10022E-001	0.00000E+000	9	...........	1368.00
	678	0.1358	-3.00358E-001	2.19958E-004	0.00000E+000	-2.99974E-001	0.00000E+000	9	...........	1368.00
	679	0.136	-2.90375E-001	2.23223E-004	0.00000E+000	-2.89977E-001	0.00000E+000	9	...........	1368.00
	680	0.1362	-2.80353E-001	2.26512E-004	0.00000E+000	-2.79979E-001	0.00000E+000	9	...........	1368.00
	681	0.1364	-2.70350E-001	2.29511E-004	0.00000E+000	-2.69982E-001	0.00000E+000	9	...........	1368.00
	682	0.1366	-2.60377E-001	2.32500E-004	0.00000E+000	-2.59984E-001	0.00000E+000	9	...........	1368.00
	683	0.1368	-2.50385E-001	2.35372E-004	0.00000E+000	-2.49987E-001	0.00000E+000	9	...........	1368.00
	684	0.137	-2.40352E-001	2.38160E-004	0.00000E+000	-2.39990E-001	0.00000E+000	9	...........	1368.00
	685	0.1372	-2.30359E-001	2.40622E-004	0.00000E+000	-2.29992E-001	0.00000E+000	9	...........	1368.00
	686	0.1374	-2.20387E-001	2.43163E-004	0.00000E+000	-2.19995E-001	0.00000E+000	9	...........	1368.00
	687	0.1376	-2.10394E-001	2.45348E-004	0.00000E+000	-2.09997E-001	0.00000E+000	9	...........	1368.00
	688	0.1378	-2.00421E-001	2.47526E-004	0.00000E+000	-2.00000E-001	0.00000E+000	9	...........	1368.00
	689	0.138	-1.90348E-001	2.49448E-004	0.00000E+000	-1.90002E-001	0.00000E+000	9	...........	1368.00
	690	0.1382	-1.80396E-001	2.51179E-004	0.00000E+000	-1.80005E-001	0.00000E+000	9	...........	1368.00
	691	0.1384	-1.70403E-001	2.52787E-004	0.00000E+000	-1.70007E-001	0.00000E+000	9	...........	1368.00
	692	0.1386	-1.60390E-001	2.54251E-004	0.00000E+000	-1.60010E-001	0.00000E+000	9	...........	1368.00
	693	0.1388	-1.50398E-001	2.55435E-004	0.00000E+000	-1.50013E-001	0.00000E+000	9	...........	1368.00
	694	0.139	-1.40385E-001	2.56536E-004	0.00000E+000	-1.40015E-001	0.00000E+000	9	...........	1368.00
	695	0.1392	-1.30422E-001	2.57249E-004	0.00000E+000	-1.30018E-001	0.00000E+000	9	...........	1368.00
	696	0.1394	-1.20390E-001	2.58000E-004	0.00000E+000	-1.20020E-001	0.00000E+000	9	...........	1368.00
	697	0.1396	-1.10397E-001	2.58357E-004	0.00000E+000	-1.10023E-001	0.00000E+000	9	...........	1368.00
	698	0.1398	-1.00334E-001	2.58881E-004	0.00000E+000	-9.99754E-002	0.00000E+000	9	...........	1368.00
	699	0.14	-9.03715E-002	2.58871E-004	0.00000E+000	-8.99780E-002	0.00000E+000	9	...........	1368.00
	700	0.1402	-8.03688E-002	2.58754E-004	0.00000E+000	-7.99806E-002	0.00000E+000	9	...........	1368.00
	701	0.1404	-7.03662E-002	2.58534E-004	0.00000E+000	-6.99831E-002	0.00000E+000	9	...........	1368.00
	702	0.1406	-6.03334E-002	2.58427E-004	0.00000E+000	-5.99857E-002	0.00000E+000	9	...........	1368.00
	703	0.1408	-5.03408E-002	2.58107E-004	0.00000E+000	-4.99882E-002	0.00000E+000	9	...........	1368.00
	704	0.141	-4.03481E-002	2.58027E-004	0.00000E+000	-3.99908E-002	0.00000E+000	9	...........	1368.00
	705	0.1412	-3.03954E-002	2.58033E-004	0.00000E+000	-2.99934E-002	0.00000E+000	9	...........	1368.00
	706	0.1414	-2.03827E-002	2.58330E-004	0.00000E+000	-1.99959E-002	0.00000E+000	9	...........	1368.00
	707	0.1416	-1.03700E-002	2.58780E-004	0.00000E+000	-9.99847E-003	0.00000E+000	9	...........	1368.00
	708	0.1418	-3.27288E-004	2.59691E-004	0.00000E+000	-1.02818E-006	0.00000E+000	9	...........	1368.00
	709	0.142	9.59538E-003	2.60782E-004	0.00000E+000	9.99641E-003	0.00000E+000	9	...........	1368.00
	710	0.1422	1.96381E-002	2.61966E-004	0.00000E+000	1.99939E-002	0.00000E+000	9	...........	1368.00
	711	0.1424	2.96608E-002	2.62827E-004	0.00000E+000	2.99913E-002	0.00000E+000	9	...........	1368.00
	712	0.1426	3.96135E-002	2.63447E-004	0.00000E+000	3.99887E-002	0.00000E+000	9	...........	1368.00
	713	0.1428	4.96762E-002	2.63617E-004	0.00000E+000	4.99862E-002	0.00000E+000	9	...........	1368.00
	714	0.143	5.96489E-002	2.63831E-004	0.00000E+000	5.99836E-002	0.00000E+000	9	...........	1368.00
	715	0.1432	6.96516E-002	2.63761E-004	0.00000E+000	6.99811E-002	0.00000E+000	9	...........	1368.00
	716	0.1434	7.96442E-002	2.63977E-004	0.00000E+000	7.99785E-002	0.00000E+000	9	...........	1368.00
	717	0.1436	8.96569E-002	2.64518E-004	0.00000E+000	9.00259E-002	0.00000E+000	9	...........	1368.00
	718	0.1438	9.96396E-002	2.65051E-004	0.00000E+000	1.00023E-001	0.00000E+000	9	...........	1368.00
	719	0.144	1.09652E-001	2.65899E-004	0.00000E+000	1.10021E-001	0.00000E+000	9	...........	1368.00
	720	0.1442	1.19645E-001	2.67079E-004	0.00000E+000	1.20018E-001	0.00000E+000	9	...........	1368.00
	721	0.1444	1.29678E-001	2.68487E-004	0.00000E+000	1.30016E-001	0.00000E+000	9	...........	1368.00
	722	0.1446	1.39630E-001	2.70115E-004	0.00000E+000	1.40013E-001	0.00000E+000	9	...........	1368.00
	723	0.1448	1.49673E-001	2.72116E-004	0.00000E+000	1.50011E-001	0.00000E+000	9	...........	1368.00
	724	0.145	1.59646E-001	2.74444E-004	0.00000E+000	1.60008E-001	0.00000E+000	9	...........	1368.00
	725	0.1452	1.69648E-001	2.77029E-004	0.00000E+000	1.70005E-001	0.00000E+000	9	...........	1368.00
	726	0.1454	1.79631E-001	2.79968E-004	0.00000E+000	1.80003E-001	0.00000E+000	9	...........	1368.00
	727	0.1456	1.89664E-001	2.83173E-004	0.00000E+000	1.90000E-001	0.00000E+000	9	...........	1368.00
	728	0.1458	1.99647E-001	2.86726E-004	0.00000E+000	1.99998E-001	0.00000E+000	9	...........	1368.00
	729	0.146	2.09589E-001	2.90802E-004	0.00000E+000	2.09995E-001	0.00000E+000	9	...........	1368.00
	730	0.1462	2.19612E-001	2.95398E-004	0.00000E+000	2.19993E-001	0.00000E+000	9	...........	1368.00
	731	0.1464	2.29605E-001	3.00445E-004	0.00000E+000	2.29990E-001	0.00000E+000	9	...........	1368.00
	732	0.1466	2.39667E-001	3.06296E-004	0.00000E+000	2.39988E-001	0.00000E+000	9	...........	1368.00
	733	0.1468	2.49630E-001	3.12740E-004	0.00000E+000	2.49985E-001	0.00000E+000	9	...........	1368.00
	734	0.147	2.59623E-001	3.19838E-004	0.00000E+000	2.59982E-001	0.00000E+000	9	...........	1368.00
	735	0.1472	2.69695E-001	3.27113E-004	0.00000E+000	2.69980E-001	0.00000E+000	9	...........	1368.00
	736	0.1474	2.79598E-001	3.34204E-004	0.00000E+000	2.79977E-001	0.00000E+000	9	...........	1368.00
	737	0.1476	2.89641E-001	3.41162E-004	0.00000E+000	2.90025E-001	0.00000E+000	9	...........	1368.00
	738	0.1478	2.99664E-001	3.46993E-004	0.00000E+000	3.00022E-001	0.00000E+000	9	...........	1368.00
	739	0.148	3.09676E-001	3.52090E-004	0.00000E+000	3.10020E-001	0.00000E+000	9	...........	1368.00
	740	0.1482	3.19669E-001	3.56653E-004	0.00000E+000	3.20017E-001	0.00000E+000	9	...........	1368.00
	741	0.1484	3.29632E-001	3.60782E-004	0.00000E+000	3.30014E-001	0.00000E+000	9	...........	1368.00
	742	0.1486	3.39644E-001	3.64484E-004	0.00000E+000	3.40012E-001	0.00000E+000	9	...........	1368.00
	743	0.1488	3.49597E-001	3.67547E-004	0.00000E+000	3.50009E-001	0.00000E+000	9	...........	1368.00
	744	0.149	3.59670E-001	3.70275E-004	0.00000E+000	3.60007E-001	0.00000E+000	9	...........	1368.00
	745	0.1492	3.69662E-001	3.72193E-004	0.00000E+000	3.70004E-001	0.00000E+000	9	...........	1368.00
	746	0.1494	3.79625E-001	3.73671E-004	0.00000E+000	3.80002E-001	0.00000E+000	9	...........	1368.00
	747	0.1496	3.89628E-001	3.74334E-004	0.00000E+000	3.89999E-001	0.00000E+000	9	...........	1368.00
	748	0.1498	3.99680E-001	3.74631E-004	0.00000E+000	3.99997E-001	0.00000E+000	9	...........	1368.00
	749	0.15	4.09663E-001	3.74221E-004	0.00000E+000	4.09994E-001	0.00000E+000	9	...........	1368.00
	750	0.1502	4.19686E-001	3.73567E-004	0.00000E+000	4.19991E-001	0.00000E+000	9	...........	1368.00
	751	0.1504	4.29669E-001	3.72413E-004	0.00000E+000	4.29989E-001	0.00000E+000	9	...........	1368.00
	752	0.1506	4.39681E-001	3.70976E-004	0.00000E+000	4.39986E-001	0.00000E+000	9	...........	1368.00
	753	0.1508	4.49644E-001	3.69088E-004	0.00000E+000	4.49984E-001	0.00000E+000	9	...........	1368.00
	754	0.151	4.59627E-001	3.67003E-004	0.00000E+000	4.59981E-001	0.00000E+000	9	...........	1368.00
	755	0.1512	4.69619E-001	3.64778E-004	0.00000E+000	4.69979E-001	0.00000E+000	9	...........	1368.00
	756	0.1514	4.79662E-001	3.62250E-004	0.00000E+000	4.79976E-001	0.00000E+000	9	...........	1368.00
	757	0.1516	4.89725E-001	3.59508E-004	0.00000E+000	4.90024E-001	0.00000E+000	9	...........	1368.00
	758	0.1518	4.99707E-001	3.56069E-004	0.00000E+000	5.00021E-001	0.00000E+000	9	...........	1368.00
	759	0.152	5.09680E-001	3.51973E-004	0.00000E+000	5.10018E-001	0.00000E+000	9	...........	1368.00
	760	0.1522	5.19703E-001	3.47610E-004	0.00000E+000	5.20016E-001	0.00000E+000	9	...........	1368.00
	761	0.1524	5.29735E-001	3.42823E-004	0.00000E+000	5.30013E-001	0.00000E+000	9	...........	1368.00
	762	0.1526	5.39748E-001	3.37747E-004	0.00000E+000	5.40011E-001	0.00000E+000	9	...........	1368.00
	763	0.1528	5.49711E-001	3.32230E-004	0.00000E+000	5.50008E-001	0.00000E+000	9	...........	1368.00
	764	0.153	5.59714E-001	3.26813E-004	0.00000E+000	5.60006E-001	0.00000E+000	9	...........	1368.00
	765	0.1532	5.69716E-001	3.21015E-004	0.00000E+000	5.70003E-001	0.00000E+000	9	...........	1368.00
	766	0.1534	5.79769E-001	3.15348E-004	0.00000E+000	5.80001E-001	0.00000E+000	9	...........	1368.00
	767	0.1536	5.89722E-001	3.09524E-004	0.00000E+000	5.89998E-001	0.00000E+000	9	...........	1368.00
	768	0.1538	5.99684E-001	3.03911E-004	0.00000E+000	5.99995E-001	0.00000E+000	9	...........	1368.00
	769	0.154	6.09727E-001	2.98304E-004	0.00000E+000	6.09993E-001	0.00000E+000	9	...........	1368.00
	770	0.1542	6.19730E-001	2.93047E-004	0.00000E+000	6.19990E-001	0.00000E+000	9	...........	1368.00
	771	0.1544	6.29722E-001	2.87910E-004	0.00000E+000	6.29988E-001	0.00000E+000	9	...........	1368.00
	772	0.1546	6.39695E-001	2.83123E-004	0.00000E+000	6.39985E-001	0.00000E+000	9	...........	1368.00
	773	0.1548	6.49688E-001	2.78637E-004	0.00000E+000	6.49983E-001	0.00000E+000	9	...........	1368.00
	774	0.155	6.59741E-001	2.74464E-004	0.00000E+000	6.59980E-001	0.00000E+000	9	...........	1368.00
	775	0.1552	6.69693E-001	2.70512E-004	0.00000E+000	6.69977E-001	0.00000E+000	9	...........	1368.00
	776	0.1554	6.79776E-001	2.66999E-004	0.00000E+000	6.80025E-001	0.00000E+000	9	...........	1368.00
	777	0.1556	6.89749E-001	2.63093E-004	0.00000E+000	6.90022E-001	0.00000E+000	9	...........	1368.00
	778	0.1558	6.99771E-001	2.59147E-004	0.00000E+000	7.00020E-001	0.00000E+000	9	...........	1368.00
	779	0.156	7.09734E-001	2.54935E-004	0.00000E+000	7.10017E-001	0.00000E+000	9	...........	1368.00
	780	0.1562	7.19787E-001	2.50595E-004	0.00000E+000	7.20015E-001	0.00000E+000	9	...........	1368.00
	781	0.1564	7.29769E-001	2.46172E-004	0.00000E+000	7.30012E-001	0.00000E+000	9	...........	1368.00
	782	0.1566	7.39752E-001	2.41809E-004	0.00000E+000	7.40010E-001	0.00000E+000	9	...........	1368.00
	783	0.1568	7.49745E-001	2.37613E-004	0.00000E+000	7.50007E-001	0.00000E+000	9	...........	1368.00
	784	0.157	7.59787E-001	2.33694E-004	0.00000E+000	7.60004E-001	0.00000E+000	9	...........	1368.00
	785	0.1572	7.69720E-001	2.30058E-004	0.00000E+000	7.70002E-001	0.00000E+000	9	...........	1368.00
	786	0.1574	7.79763E-001	2.26956E-004	0.00000E+000	7.79999E-001	0.00000E+000	9	...........	1368.00
	787	0.1576	7.89746E-001	2.24284E-004	0.00000E+000	7.89997E-001	0.00000E+000	9	...........	1368.00
	788	0.1578	7.99758E-001	2.22139E-004	0.00000E+000	7.99994E-001	0.00000E+000	9	...........	1368.00
CURVE4	TABLE
	Pt	T	Vf	Im	Vu	Sig	Ach	IERange	Over	Temp
	#	s	V vs. Ref.	A	V	V	V	#	bits	deg C
	789	0.158	7.90626E-001	1.08533E-004	0.00000E+000	7.89997E-001	0.00000E+000	9	...........	1368.00
	790	0.1582	7.80543E-001	4.06447E-005	0.00000E+000	7.79999E-001	0.00000E+000	9	...........	1368.00
	791	0.1584	7.70570E-001	-3.22129E-006	0.00000E+000	7.70002E-001	0.00000E+000	9	...........	1368.00
	792	0.1586	7.60498E-001	-3.36049E-005	0.00000E+000	7.60004E-001	0.00000E+000	9	...........	1368.00
	793	0.1588	7.50495E-001	-5.57831E-005	0.00000E+000	7.50007E-001	0.00000E+000	9	...........	1368.00
	794	0.159	7.40472E-001	-7.27478E-005	0.00000E+000	7.40010E-001	0.00000E+000	9	...........	1368.00
	795	0.1592	7.30530E-001	-8.64302E-005	0.00000E+000	7.30012E-001	0.00000E+000	9	...........	1368.00
	796	0.1594	7.20477E-001	-9.79646E-005	0.00000E+000	7.20015E-001	0.00000E+000	9	...........	1368.00
	797	0.1596	7.10484E-001	-1.08085E-004	0.00000E+000	7.10017E-001	0.00000E+000	9	...........	1368.00
	798	0.1598	7.00511E-001	-1.17378E-004	0.00000E+000	7.00020E-001	0.00000E+000	9	...........	1368.00
	799	0.16	6.90469E-001	-1.26187E-004	0.00000E+000	6.90022E-001	0.00000E+000	9	...........	1368.00
	800	0.1602	6.80446E-001	-1.34562E-004	0.00000E+000	6.80025E-001	0.00000E+000	9	...........	1368.00
	801	0.1604	6.70443E-001	-1.43008E-004	0.00000E+000	6.69977E-001	0.00000E+000	9	...........	1368.00
	802	0.1606	6.60451E-001	-1.51040E-004	0.00000E+000	6.59980E-001	0.00000E+000	9	...........	1368.00
	803	0.1608	6.50468E-001	-1.58992E-004	0.00000E+000	6.49983E-001	0.00000E+000	9	...........	1368.00
	804	0.161	6.40465E-001	-1.67101E-004	0.00000E+000	6.39985E-001	0.00000E+000	9	...........	1368.00
	805	0.1612	6.30453E-001	-1.74896E-004	0.00000E+000	6.29988E-001	0.00000E+000	9	...........	1368.00
	806	0.1614	6.20410E-001	-1.82731E-004	0.00000E+000	6.19990E-001	0.00000E+000	9	...........	1368.00
	807	0.1616	6.10447E-001	-1.90310E-004	0.00000E+000	6.09993E-001	0.00000E+000	9	...........	1368.00
	808	0.1618	6.00475E-001	-1.97538E-004	0.00000E+000	5.99995E-001	0.00000E+000	9	...........	1368.00
	809	0.162	5.90462E-001	-2.04226E-004	0.00000E+000	5.89998E-001	0.00000E+000	9	...........	1368.00
	810	0.1622	5.80499E-001	-2.10443E-004	0.00000E+000	5.80001E-001	0.00000E+000	9	...........	1368.00
	811	0.1624	5.70436E-001	-2.15987E-004	0.00000E+000	5.70003E-001	0.00000E+000	9	...........	1368.00
	812	0.1626	5.60444E-001	-2.21080E-004	0.00000E+000	5.60006E-001	0.00000E+000	9	...........	1368.00
	813	0.1628	5.50391E-001	-2.25863E-004	0.00000E+000	5.50008E-001	0.00000E+000	9	...........	1368.00
	814	0.163	5.40448E-001	-2.30173E-004	0.00000E+000	5.40011E-001	0.00000E+000	9	...........	1368.00
	815	0.1632	5.30496E-001	-2.34202E-004	0.00000E+000	5.30013E-001	0.00000E+000	9	...........	1368.00
	816	0.1634	5.20413E-001	-2.38665E-004	0.00000E+000	5.20016E-001	0.00000E+000	9	...........	1368.00
	817	0.1636	5.10460E-001	-2.42621E-004	0.00000E+000	5.10018E-001	0.00000E+000	9	...........	1368.00
	818	0.1638	5.00468E-001	-2.46704E-004	0.00000E+000	5.00021E-001	0.00000E+000	9	...........	1368.00
	819	0.164	4.90475E-001	-2.50910E-004	0.00000E+000	4.90024E-001	0.00000E+000	9	...........	1368.00
	820	0.1642	4.80412E-001	-2.55507E-004	0.00000E+000	4.79976E-001	0.00000E+000	9	...........	1368.00
	821	0.1644	4.70440E-001	-2.59950E-004	0.00000E+000	4.69979E-001	0.00000E+000	9	...........	1368.00
	822	0.1646	4.60427E-001	-2.64609E-004	0.00000E+000	4.59981E-001	0.00000E+000	9	...........	1368.00
	823	0.1648	4.50454E-001	-2.69329E-004	0.00000E+000	4.49984E-001	0.00000E+000	9	...........	1368.00
	824	0.165	4.40441E-001	-2.74433E-004	0.00000E+000	4.39986E-001	0.00000E+000	9	...........	1368.00
	825	0.1652	4.30439E-001	-2.79509E-004	0.00000E+000	4.29989E-001	0.00000E+000	9	...........	1368.00
	826	0.1654	4.20446E-001	-2.84966E-004	0.00000E+000	4.19991E-001	0.00000E+000	9	...........	1368.00
	827	0.1656	4.10453E-001	-2.90547E-004	0.00000E+000	4.09994E-001	0.00000E+000	9	...........	1368.00
	828	0.1658	4.00441E-001	-2.96224E-004	0.00000E+000	3.99997E-001	0.00000E+000	9	...........	1368.00
	829	0.166	3.90428E-001	-3.01894E-004	0.00000E+000	3.89999E-001	0.00000E+000	9	...........	1368.00
	830	0.1662	3.80405E-001	-3.07658E-004	0.00000E+000	3.80002E-001	0.00000E+000	9	...........	1368.00
	831	0.1664	3.70423E-001	-3.13419E-004	0.00000E+000	3.70004E-001	0.00000E+000	9	...........	1368.00
	832	0.1666	3.60450E-001	-3.19122E-004	0.00000E+000	3.60007E-001	0.00000E+000	9	...........	1368.00
	833	0.1668	3.50467E-001	-3.24579E-004	0.00000E+000	3.50009E-001	0.00000E+000	9	...........	1368.00
	834	0.167	3.40495E-001	-3.29863E-004	0.00000E+000	3.40012E-001	0.00000E+000	9	...........	1368.00
	835	0.1672	3.30422E-001	-3.34736E-004	0.00000E+000	3.30014E-001	0.00000E+000	9	...........	1368.00
	836	0.1674	3.20509E-001	-3.39006E-004	0.00000E+000	3.20017E-001	0.00000E+000	9	...........	1368.00
	837	0.1676	3.10476E-001	-3.42802E-004	0.00000E+000	3.10020E-001	0.00000E+000	9	...........	1368.00
	838	0.1678	3.00514E-001	-3.46027E-004	0.00000E+000	3.00022E-001	0.00000E+000	9	...........	1368.00
	839	0.168	2.90481E-001	-3.48742E-004	0.00000E+000	2.90025E-001	0.00000E+000	9	...........	1368.00
	840	0.1682	2.80388E-001	-3.51558E-004	0.00000E+000	2.79977E-001	0.00000E+000	9	...........	1368.00
