EXPLAIN
TAG	CV
TITLE	LABEL	CV50000	Test Identifier
DATE	LABEL	5/9/2025	Date
TIME	LABEL	14:37:01	Time
NOTES	NOTES	1	Notes...
	
PSTAT	PSTAT	REF600P-43058	Potentiostat
VINIT	POTEN	0.00000E+000	T	Initial E (V)
VLIMIT1	POTEN	-9.00000E-001	F	Scan Limit 1 (V)
VLIMIT2	POTEN	6.00000E-001	F	Scan Limit 2 (V)
VFINAL	POTEN	0.00000E+000	T	Final E (V)
SCANRATE	QUANT	4.99999E+004	Scan Rate (mV/s)
STEPSIZE	QUANT	1.00000E+001	Step Size (mV)
CYCLES	IQUANT	3	Cycles (#)
IMODE	SELECTOR	1	I/E Range Mode
IRANGE	QUANT	1.00000E-002	Max Current (mA)
AREA	QUANT	1.00000E+000	Sample Area (cm^2)
EQDELAY	QUANT	5.00000E+000	Equil. Time (s)
IRCOMP	SELECTOR	0	IRComp
PFCOR	QUANT	5.00000E+001	PF Corr. (ohm)
SAMPLINGMODE	SELECTOR	2	Sampling Mode
EOC	QUANT	0.1869809	Open Circuit (V)
ELECTRODETYPE	SELECTOR	0	Electrode Type
STRIPPING	TOGGLE	F	Used for Stripping
SEQUENCER	TOGGLE	TRUE	Run as Sequence
PSTATMODEL	IQUANT	7	Pstat Model
PSTATSECTION	LABEL	REF600P-43058	Pstat Section
PSTATSERIALNO	LABEL	43058	Pstat Serial Number
CTRLMODE	IQUANT	1	Control Mode
ELECTROMETER	IQUANT	0	RE=0 or CS=1
IESTAB	IQUANT	2	I/E Stability
CASPEED	IQUANT	4	Control Amp Speed
CONVENTION	IQUANT	1	Current Convention
ICHRANGE	IQUANT	2	Ich Range
ICHRANGEMODE	TOGGLE	F	Ich Auto Range
ICHOFFSETENABLE	TOGGLE	F	Ich Offset Enable
ICHOFFSET	QUANT	0	Ich Offset (V)
ICHFILTER	IQUANT	1	Ich Filter
VCHRANGE	IQUANT	2	Vch Range
VCHRANGEMODE	TOGGLE	F	Vch Auto Range
VCHOFFSETENABLE	TOGGLE	F	Vch Offset Enable
VCHOFFSET	QUANT	0	Vch Offset (V)
VCHFILTER	IQUANT	1	Vch Filter
ACHRANGE	IQUANT	2	Ach Range
ACHOFFSETENABLE	TOGGLE	F	Ach Offset Enable
ACHOFFSET	QUANT	0	Ach Offset (V)
ACHFILTER	IQUANT	1	Ach Filter
IERANGELOWERLIMIT	IQUANT	1	I/E Range Lower Limit
IERANGEMODE	TOGGLE	F	I/E AutoRange
IERANGE	IQUANT	7	I/E Range
POSFEEDENABLE	TOGGLE	F	Positive Feedback IR Comp
POSFEEDRESISTANCE	QUANT	0	Positive Feedback Resistance (ohm)
ACHSELECT	IQUANT	4	Ach Select
SENSECABLEID	IQUANT	7	Sense Cable ID
PWRCABLEID	IQUANT	7	Power Cable ID
DCCALDATE	LABEL	5/8/2025	DC Calibration Date
ACCALDATE	LABEL	5/8/2025	AC Calibration Date
THERMOSELECT	IQUANT	1	Thermo Select
FRAMEWORKVERSION	LABEL	7.10.4	Framework Version
INSTRUMENTVERSION	LABEL	5.01	Instrument Version
COMMVERSION	LABEL	5.10	Communications Version
CPUPLDVERSION	LABEL	6.00	CPU PLD Version
CTRLPLDVERSION	LABEL	3.21	CTRL PLD Version
PSTATPLDVERSION	LABEL	0.00	PSTAT PLD Version
CURVE1	TABLE
	Pt	T	Vf	Im	Vu	Sig	Ach	IERange	Over	Temp
	#	s	V vs. Ref.	A	V	V	V	#	bits	deg C
	0	0.0002	1.87137E-001	1.09054E-008	0.00000E+000	1.87000E-001	1.06522E-003	7	...........	-327.66
	1	0.0004	1.77237E-001	-1.21276E-006	0.00000E+000	1.77000E-001	9.40224E-004	7	...........	-327.66
	2	0.0006	1.67100E-001	-2.32341E-006	0.00000E+000	1.67000E-001	1.04022E-003	7	...........	-327.66
	3	0.0008	1.57087E-001	-3.22929E-006	0.00000E+000	1.57000E-001	9.40224E-004	7	...........	-327.66
	4	0.001	1.47137E-001	-4.00914E-006	0.00000E+000	1.47000E-001	1.06522E-003	7	...........	-327.66
	5	0.0012	1.37150E-001	-4.69799E-006	0.00000E+000	1.37000E-001	1.09022E-003	7	...........	-327.66
	6	0.0014	1.27137E-001	-5.31657E-006	0.00000E+000	1.27000E-001	1.14022E-003	7	...........	-327.66
	7	0.0016	1.17112E-001	-5.88840E-006	0.00000E+000	1.17000E-001	1.11522E-003	7	...........	-327.66
	8	0.0018	1.07112E-001	-6.41722E-006	0.00000E+000	1.07000E-001	1.01522E-003	7	...........	-327.66
	9	0.002	9.71123E-002	-6.91679E-006	0.00000E+000	9.70000E-002	1.11522E-003	7	...........	-327.66
	10	0.0022	8.71248E-002	-7.38885E-006	0.00000E+000	8.70000E-002	1.11522E-003	7	...........	-327.66
	11	0.0024	7.71498E-002	-7.83941E-006	0.00000E+000	7.70000E-002	1.06522E-003	7	...........	-327.66
	12	0.0026	6.71998E-002	-8.27272E-006	0.00000E+000	6.70000E-002	1.19022E-003	7	...........	-327.66
	13	0.0028	5.70998E-002	-8.69103E-006	0.00000E+000	5.70000E-002	1.01522E-003	7	...........	-327.66
	14	0.003	4.71373E-002	-9.09183E-006	0.00000E+000	4.70000E-002	1.19022E-003	7	...........	-327.66
	15	0.0032	3.71373E-002	-9.48589E-006	0.00000E+000	3.70000E-002	1.01522E-003	7	...........	-327.66
	16	0.0034	2.70998E-002	-9.86619E-006	0.00000E+000	2.70000E-002	1.06522E-003	7	...........	-327.66
	17	0.0036	1.72123E-002	-1.02382E-005	0.00000E+000	1.70000E-002	1.24022E-003	7	...........	-327.66
	18	0.0038	7.16231E-003	-1.06043E-005	0.00000E+000	6.99998E-003	1.11522E-003	7	...........	-327.66
	19	0.004	-2.86269E-003	-1.09623E-005	0.00000E+000	-3.00001E-003	9.90224E-004	7	...........	-327.66
	20	0.0042	-1.28627E-002	-1.13151E-005	0.00000E+000	-1.30000E-002	1.14022E-003	7	...........	-327.66
	21	0.0044	-2.28752E-002	-1.16674E-005	0.00000E+000	-2.30000E-002	1.04022E-003	7	...........	-327.66
	22	0.0046	-3.28627E-002	-1.20090E-005	0.00000E+000	-3.30000E-002	1.26522E-003	7	...........	-327.66
	23	0.0048	-4.28252E-002	-1.23528E-005	0.00000E+000	-4.30000E-002	1.16522E-003	7	...........	-327.66
	24	0.005	-5.28877E-002	-1.26891E-005	0.00000E+000	-5.30000E-002	1.06522E-003	7	...........	-327.66
	25	0.0052	-6.26502E-002	-1.30204E-005	0.00000E+000	-6.30000E-002	1.21522E-003	7	...........	-327.66
	26	0.0054	-7.28127E-002	-1.33514E-005	0.00000E+000	-7.30000E-002	1.14022E-003	7	...........	-327.66
	27	0.0056	-8.28002E-002	-1.36777E-005	0.00000E+000	-8.30000E-002	1.11522E-003	7	...........	-327.66
	28	0.0058	-9.28377E-002	-1.40035E-005	0.00000E+000	-9.30000E-002	1.09022E-003	7	...........	-327.66
	29	0.006	-1.02813E-001	-1.43243E-005	0.00000E+000	-1.03000E-001	1.11522E-003	7	...........	-327.66
	30	0.0062	-1.12813E-001	-1.46488E-005	0.00000E+000	-1.13000E-001	1.14022E-003	7	...........	-327.66
	31	0.0064	-1.22825E-001	-1.49716E-005	0.00000E+000	-1.23000E-001	1.01522E-003	7	...........	-327.66
	32	0.0066	-1.32863E-001	-1.52884E-005	0.00000E+000	-1.33000E-001	1.06522E-003	7	...........	-327.66
	33	0.0068	-1.42813E-001	-1.56055E-005	0.00000E+000	-1.43000E-001	1.06522E-003	7	...........	-327.66
	34	0.007	-1.52863E-001	-1.59260E-005	0.00000E+000	-1.53000E-001	9.40224E-004	7	...........	-327.66
	35	0.0072	-1.62813E-001	-1.62423E-005	0.00000E+000	-1.63000E-001	9.90224E-004	7	...........	-327.66
	36	0.0074	-1.72863E-001	-1.65621E-005	0.00000E+000	-1.73000E-001	1.09022E-003	7	...........	-327.66
	37	0.0076	-1.82700E-001	-1.68761E-005	0.00000E+000	-1.83000E-001	1.21522E-003	7	...........	-327.66
	38	0.0078	-1.92775E-001	-1.71949E-005	0.00000E+000	-1.93000E-001	1.11522E-003	7	...........	-327.66
	39	0.008	-2.02888E-001	-1.75110E-005	0.00000E+000	-2.03000E-001	1.09022E-003	7	...........	-327.66
	40	0.0082	-2.12888E-001	-1.78283E-005	0.00000E+000	-2.13000E-001	1.11522E-003	7	...........	-327.66
	41	0.0084	-2.22863E-001	-1.81471E-005	0.00000E+000	-2.23000E-001	1.19022E-003	7	...........	-327.66
	42	0.0086	-2.32838E-001	-1.84624E-005	0.00000E+000	-2.33000E-001	1.11522E-003	7	...........	-327.66
	43	0.0088	-2.42638E-001	-1.87769E-005	0.00000E+000	-2.43000E-001	1.01522E-003	7	...........	-327.66
	44	0.009	-2.52863E-001	-1.90959E-005	0.00000E+000	-2.53000E-001	1.04022E-003	7	...........	-327.66
	45	0.0092	-2.62788E-001	-1.94120E-005	0.00000E+000	-2.63000E-001	1.09022E-003	7	...........	-327.66
	46	0.0094	-2.72763E-001	-1.97233E-005	0.00000E+000	-2.73000E-001	1.06522E-003	7	...........	-327.66
	47	0.0096	-2.82825E-001	-2.00426E-005	0.00000E+000	-2.83000E-001	9.65224E-004	7	...........	-327.66
	48	0.0098	-2.92850E-001	-2.03601E-005	0.00000E+000	-2.93000E-001	1.19022E-003	7	...........	-327.66
	49	0.01	-3.02763E-001	-2.06827E-005	0.00000E+000	-3.03000E-001	1.24022E-003	7	...........	-327.66
	50	0.0102	-3.12838E-001	-2.10007E-005	0.00000E+000	-3.13000E-001	1.24022E-003	7	...........	-327.66
	51	0.0104	-3.22725E-001	-2.13188E-005	0.00000E+000	-3.23000E-001	1.09022E-003	7	...........	-327.66
	52	0.0106	-3.32775E-001	-2.16363E-005	0.00000E+000	-3.33000E-001	1.09022E-003	7	...........	-327.66
	53	0.0108	-3.42763E-001	-2.19551E-005	0.00000E+000	-3.43000E-001	1.06522E-003	7	...........	-327.66
	54	0.011	-3.52838E-001	-2.22756E-005	0.00000E+000	-3.53000E-001	1.14022E-003	7	...........	-327.66
	55	0.0112	-3.62838E-001	-2.25939E-005	0.00000E+000	-3.63000E-001	1.19022E-003	7	...........	-327.66
	56	0.0114	-3.72750E-001	-2.29110E-005	0.00000E+000	-3.73000E-001	1.14022E-003	7	...........	-327.66
	57	0.0116	-3.82813E-001	-2.32290E-005	0.00000E+000	-3.83000E-001	1.14022E-003	7	...........	-327.66
	58	0.0118	-3.92813E-001	-2.35446E-005	0.00000E+000	-3.93000E-001	1.04022E-003	7	...........	-327.66
	59	0.012	-4.02763E-001	-2.38638E-005	0.00000E+000	-4.03000E-001	1.06522E-003	7	...........	-327.66
	60	0.0122	-4.12738E-001	-2.41834E-005	0.00000E+000	-4.13000E-001	1.11522E-003	7	...........	-327.66
	61	0.0124	-4.22788E-001	-2.45002E-005	0.00000E+000	-4.23000E-001	1.16522E-003	7	...........	-327.66
	62	0.0126	-4.32813E-001	-2.48192E-005	0.00000E+000	-4.33000E-001	1.16522E-003	7	...........	-327.66
	63	0.0128	-4.42713E-001	-2.51358E-005	0.00000E+000	-4.43000E-001	1.11522E-003	7	...........	-327.66
	64	0.013	-4.52813E-001	-2.54528E-005	0.00000E+000	-4.53000E-001	1.04022E-003	7	...........	-327.66
	65	0.0132	-4.62863E-001	-2.57674E-005	0.00000E+000	-4.63000E-001	1.16522E-003	7	...........	-327.66
	66	0.0134	-4.72650E-001	-2.60812E-005	0.00000E+000	-4.73000E-001	1.06522E-003	7	...........	-327.66
	67	0.0136	-4.82788E-001	-2.63964E-005	0.00000E+000	-4.83000E-001	1.04022E-003	7	...........	-327.66
	68	0.0138	-4.92863E-001	-2.67117E-005	0.00000E+000	-4.93000E-001	1.19022E-003	7	...........	-327.66
	69	0.014	-5.02750E-001	-2.70240E-005	0.00000E+000	-5.03000E-001	1.11522E-003	7	...........	-327.66
	70	0.0142	-5.12850E-001	-2.73348E-005	0.00000E+000	-5.13000E-001	1.14022E-003	7	...........	-327.66
	71	0.0144	-5.22663E-001	-2.76444E-005	0.00000E+000	-5.23000E-001	1.19022E-003	7	...........	-327.66
	72	0.0146	-5.32863E-001	-2.79517E-005	0.00000E+000	-5.33000E-001	1.21522E-003	7	...........	-327.66
	73	0.0148	-5.42713E-001	-2.82582E-005	0.00000E+000	-5.43000E-001	1.11522E-003	7	...........	-327.66
	74	0.015	-5.52750E-001	-2.85607E-005	0.00000E+000	-5.53000E-001	1.16522E-003	7	...........	-327.66
	75	0.0152	-5.62713E-001	-2.88648E-005	0.00000E+000	-5.63000E-001	1.06522E-003	7	...........	-327.66
	76	0.0154	-5.72738E-001	-2.91663E-005	0.00000E+000	-5.73000E-001	1.06522E-003	7	...........	-327.66
	77	0.0156	-5.82763E-001	-2.94661E-005	0.00000E+000	-5.83000E-001	1.04022E-003	7	...........	-327.66
	78	0.0158	-5.92800E-001	-2.97572E-005	0.00000E+000	-5.93000E-001	1.16522E-003	7	...........	-327.66
	79	0.016	-6.02663E-001	-3.00532E-005	0.00000E+000	-6.03000E-001	1.06522E-003	7	...........	-327.66
	80	0.0162	-6.12750E-001	-3.03420E-005	0.00000E+000	-6.13000E-001	1.04022E-003	7	...........	-327.66
	81	0.0164	-6.22688E-001	-3.06315E-005	0.00000E+000	-6.23000E-001	1.11522E-003	7	...........	-327.66
	82	0.0166	-6.32663E-001	-3.09126E-005	0.00000E+000	-6.33000E-001	1.14022E-003	7	...........	-327.66
	83	0.0168	-6.42700E-001	-3.11923E-005	0.00000E+000	-6.43000E-001	9.65224E-004	7	...........	-327.66
	84	0.017	-6.52738E-001	-3.14676E-005	0.00000E+000	-6.53000E-001	1.11522E-003	7	...........	-327.66
	85	0.0172	-6.62713E-001	-3.17384E-005	0.00000E+000	-6.63000E-001	1.09022E-003	7	...........	-327.66
	86	0.0174	-6.72663E-001	-3.20025E-005	0.00000E+000	-6.73000E-001	1.06522E-003	7	...........	-327.66
	87	0.0176	-6.82713E-001	-3.22657E-005	0.00000E+000	-6.83000E-001	1.11522E-003	7	...........	-327.66
	88	0.0178	-6.92575E-001	-3.25175E-005	0.00000E+000	-6.93000E-001	1.16522E-003	7	...........	-327.66
	89	0.018	-7.02600E-001	-3.27698E-005	0.00000E+000	-7.03000E-001	1.14022E-003	7	...........	-327.66
	90	0.0182	-7.12763E-001	-3.30136E-005	0.00000E+000	-7.13000E-001	1.06522E-003	7	...........	-327.66
	91	0.0184	-7.22475E-001	-3.32491E-005	0.00000E+000	-7.23000E-001	1.19022E-003	7	...........	-327.66
	92	0.0186	-7.32700E-001	-3.34754E-005	0.00000E+000	-7.33000E-001	1.04022E-003	7	...........	-327.66
	93	0.0188	-7.42625E-001	-3.36959E-005	0.00000E+000	-7.43000E-001	1.04022E-003	7	...........	-327.66
	94	0.019	-7.52700E-001	-3.39057E-005	0.00000E+000	-7.53000E-001	1.01522E-003	7	...........	-327.66
	95	0.0192	-7.62725E-001	-3.41060E-005	0.00000E+000	-7.63000E-001	1.06522E-003	7	...........	-327.66
	96	0.0194	-7.72700E-001	-3.42953E-005	0.00000E+000	-7.73000E-001	1.06522E-003	7	...........	-327.66
	97	0.0196	-7.82625E-001	-3.44678E-005	0.00000E+000	-7.83000E-001	1.19022E-003	7	...........	-327.66
	98	0.0198	-7.92738E-001	-3.46403E-005	0.00000E+000	-7.93000E-001	1.21522E-003	7	...........	-327.66
	99	0.02	-8.02625E-001	-3.47893E-005	0.00000E+000	-8.03000E-001	1.21522E-003	7	...........	-327.66
	100	0.0202	-8.12600E-001	-3.49246E-005	0.00000E+000	-8.13000E-001	1.16522E-003	7	...........	-327.66
	101	0.0204	-8.22638E-001	-3.50424E-005	0.00000E+000	-8.23000E-001	1.11522E-003	7	...........	-327.66
	102	0.0206	-8.32538E-001	-3.51474E-005	0.00000E+000	-8.33000E-001	1.24022E-003	7	...........	-327.66
	103	0.0208	-8.42613E-001	-3.52301E-005	0.00000E+000	-8.43000E-001	1.04022E-003	7	...........	-327.66
	104	0.021	-8.52763E-001	-3.52949E-005	0.00000E+000	-8.53000E-001	1.21522E-003	7	...........	-327.66
	105	0.0212	-8.62625E-001	-3.53307E-005	0.00000E+000	-8.63000E-001	1.19022E-003	7	...........	-327.66
	106	0.0214	-8.72600E-001	-3.53487E-005	0.00000E+000	-8.73000E-001	1.06522E-003	7	...........	-327.66
	107	0.0216	-8.82613E-001	-3.53424E-005	0.00000E+000	-8.83000E-001	1.11522E-003	7	...........	-327.66
	108	0.0218	-8.92788E-001	-3.53117E-005	0.00000E+000	-8.93000E-001	1.11522E-003	7	...........	-327.66
	109	0.022	-9.02525E-001	-3.52524E-005	0.00000E+000	-9.03000E-001	1.19022E-003	7	...........	-327.66
	110	0.0222	-8.92813E-001	-3.31381E-005	0.00000E+000	-8.93000E-001	9.15224E-004	7	...........	-327.66
	111	0.0224	-8.82638E-001	-3.11663E-005	0.00000E+000	-8.83000E-001	1.09022E-003	7	...........	-327.66
	112	0.0226	-8.72800E-001	-2.95149E-005	0.00000E+000	-8.73000E-001	1.04022E-003	7	...........	-327.66
	113	0.0228	-8.62713E-001	-2.80594E-005	0.00000E+000	-8.63000E-001	1.06522E-003	7	...........	-327.66
	114	0.023	-8.52825E-001	-2.67397E-005	0.00000E+000	-8.53000E-001	1.06522E-003	7	...........	-327.66
	115	0.0232	-8.42675E-001	-2.55138E-005	0.00000E+000	-8.43000E-001	1.14022E-003	7	...........	-327.66
	116	0.0234	-8.32725E-001	-2.43589E-005	0.00000E+000	-8.33000E-001	1.24022E-003	7	...........	-327.66
	117	0.0236	-8.22713E-001	-2.32613E-005	0.00000E+000	-8.23000E-001	1.24022E-003	7	...........	-327.66
	118	0.0238	-8.12725E-001	-2.22064E-005	0.00000E+000	-8.13000E-001	1.19022E-003	7	...........	-327.66
	119	0.024	-8.02700E-001	-2.11870E-005	0.00000E+000	-8.03000E-001	1.06522E-003	7	...........	-327.66
	120	0.0242	-7.92825E-001	-2.01999E-005	0.00000E+000	-7.93000E-001	1.01522E-003	7	...........	-327.66
	121	0.0244	-7.82738E-001	-1.92392E-005	0.00000E+000	-7.83000E-001	1.16522E-003	7	...........	-327.66
	122	0.0246	-7.72825E-001	-1.82918E-005	0.00000E+000	-7.73000E-001	1.29022E-003	7	...........	-327.66
	123	0.0248	-7.62838E-001	-1.73702E-005	0.00000E+000	-7.63000E-001	1.29022E-003	7	...........	-327.66
	124	0.025	-7.52775E-001	-1.64646E-005	0.00000E+000	-7.53000E-001	1.24022E-003	7	...........	-327.66
	125	0.0252	-7.42813E-001	-1.55702E-005	0.00000E+000	-7.43000E-001	9.40224E-004	7	...........	-327.66
	126	0.0254	-7.32700E-001	-1.46878E-005	0.00000E+000	-7.33000E-001	1.04022E-003	7	...........	-327.66
	127	0.0256	-7.22600E-001	-1.38192E-005	0.00000E+000	-7.23000E-001	1.01522E-003	7	...........	-327.66
	128	0.0258	-7.12763E-001	-1.29681E-005	0.00000E+000	-7.13000E-001	9.40224E-004	7	...........	-327.66
	129	0.026	-7.02863E-001	-1.21255E-005	0.00000E+000	-7.03000E-001	9.90224E-004	7	...........	-327.66
	130	0.0262	-6.92813E-001	-1.12904E-005	0.00000E+000	-6.93000E-001	1.16522E-003	7	...........	-327.66
	131	0.0264	-6.82775E-001	-1.04630E-005	0.00000E+000	-6.83000E-001	1.21522E-003	7	...........	-327.66
	132	0.0266	-6.72838E-001	-9.64791E-006	0.00000E+000	-6.73000E-001	1.04022E-003	7	...........	-327.66
	133	0.0268	-6.62813E-001	-8.84080E-006	0.00000E+000	-6.63000E-001	9.90224E-004	7	...........	-327.66
	134	0.027	-6.52850E-001	-8.04044E-006	0.00000E+000	-6.53000E-001	1.06522E-003	7	...........	-327.66
	135	0.0272	-6.42750E-001	-7.25584E-006	0.00000E+000	-6.43000E-001	1.14022E-003	7	...........	-327.66
	136	0.0274	-6.32738E-001	-6.47823E-006	0.00000E+000	-6.33000E-001	1.14022E-003	7	...........	-327.66
	137	0.0276	-6.22800E-001	-5.70962E-006	0.00000E+000	-6.23000E-001	1.21522E-003	7	...........	-327.66
	138	0.0278	-6.12888E-001	-4.94577E-006	0.00000E+000	-6.13000E-001	1.04022E-003	7	...........	-327.66
	139	0.028	-6.02775E-001	-4.19567E-006	0.00000E+000	-6.03000E-001	9.90224E-004	7	...........	-327.66
	140	0.0282	-5.92850E-001	-3.45107E-006	0.00000E+000	-5.93000E-001	1.29022E-003	7	...........	-327.66
	141	0.0284	-5.82900E-001	-2.71822E-006	0.00000E+000	-5.83000E-001	1.19022E-003	7	...........	-327.66
	142	0.0286	-5.72900E-001	-1.99487E-006	0.00000E+000	-5.73000E-001	1.14022E-003	7	...........	-327.66
	143	0.0288	-5.62838E-001	-1.27977E-006	0.00000E+000	-5.63000E-001	1.14022E-003	7	...........	-327.66
	144	0.029	-5.52800E-001	-5.75925E-007	0.00000E+000	-5.53000E-001	1.19022E-003	7	...........	-327.66
	145	0.0292	-5.42850E-001	1.23171E-007	0.00000E+000	-5.43000E-001	1.14022E-003	7	...........	-327.66
	146	0.0294	-5.32938E-001	8.09764E-007	0.00000E+000	-5.33000E-001	1.21522E-003	7	...........	-327.66
	147	0.0296	-5.22750E-001	1.48736E-006	0.00000E+000	-5.23000E-001	1.14022E-003	7	...........	-327.66
	148	0.0298	-5.12863E-001	2.15595E-006	0.00000E+000	-5.13000E-001	1.06522E-003	7	...........	-327.66
	149	0.03	-5.02850E-001	2.81479E-006	0.00000E+000	-5.03000E-001	9.40224E-004	7	...........	-327.66
	150	0.0302	-4.92913E-001	3.46738E-006	0.00000E+000	-4.93000E-001	9.90224E-004	7	...........	-327.66
	151	0.0304	-4.82938E-001	4.11221E-006	0.00000E+000	-4.83000E-001	1.09022E-003	7	...........	-327.66
	152	0.0306	-4.72863E-001	4.74355E-006	0.00000E+000	-4.73000E-001	9.65224E-004	7	...........	-327.66
	153	0.0308	-4.62875E-001	5.36964E-006	0.00000E+000	-4.63000E-001	1.24022E-003	7	...........	-327.66
	154	0.031	-4.52850E-001	5.98797E-006	0.00000E+000	-4.53000E-001	1.14022E-003	7	...........	-327.66
	155	0.0312	-4.42863E-001	6.59380E-006	0.00000E+000	-4.43000E-001	9.40224E-004	7	...........	-327.66
	156	0.0314	-4.32788E-001	7.19213E-006	0.00000E+000	-4.33000E-001	1.04022E-003	7	...........	-327.66
	157	0.0316	-4.22913E-001	7.78296E-006	0.00000E+000	-4.23000E-001	1.11522E-003	7	...........	-327.66
	158	0.0318	-4.12863E-001	8.36854E-006	0.00000E+000	-4.13000E-001	1.09022E-003	7	...........	-327.66
	159	0.032	-4.02950E-001	8.93937E-006	0.00000E+000	-4.03000E-001	1.04022E-003	7	...........	-327.66
	160	0.0322	-3.92900E-001	9.50420E-006	0.00000E+000	-3.93000E-001	1.06522E-003	7	...........	-327.66
	161	0.0324	-3.82863E-001	1.00595E-005	0.00000E+000	-3.83000E-001	1.14022E-003	7	...........	-327.66
	162	0.0326	-3.73000E-001	1.06096E-005	0.00000E+000	-3.73000E-001	1.04022E-003	7	...........	-327.66
	163	0.0328	-3.63000E-001	1.11489E-005	0.00000E+000	-3.63000E-001	1.11522E-003	7	...........	-327.66
	164	0.033	-3.52913E-001	1.16785E-005	0.00000E+000	-3.53000E-001	1.14022E-003	7	...........	-327.66
	165	0.0332	-3.42900E-001	1.22028E-005	0.00000E+000	-3.43000E-001	1.16522E-003	7	...........	-327.66
	166	0.0334	-3.32888E-001	1.27196E-005	0.00000E+000	-3.33000E-001	1.06522E-003	7	...........	-327.66
	167	0.0336	-3.22963E-001	1.32222E-005	0.00000E+000	-3.23000E-001	1.24022E-003	7	...........	-327.66
	168	0.0338	-3.12913E-001	1.37188E-005	0.00000E+000	-3.13000E-001	1.16522E-003	7	...........	-327.66
	169	0.034	-3.02850E-001	1.42051E-005	0.00000E+000	-3.03000E-001	1.24022E-003	7	...........	-327.66
	170	0.0342	-2.92900E-001	1.46862E-005	0.00000E+000	-2.93000E-001	9.65224E-004	7	...........	-327.66
	171	0.0344	-2.82888E-001	1.51537E-005	0.00000E+000	-2.83000E-001	1.04022E-003	7	...........	-327.66
	172	0.0346	-2.72838E-001	1.56125E-005	0.00000E+000	-2.73000E-001	1.11522E-003	7	...........	-327.66
	173	0.0348	-2.62925E-001	1.60648E-005	0.00000E+000	-2.63000E-001	1.06522E-003	7	...........	-327.66
	174	0.035	-2.52938E-001	1.65112E-005	0.00000E+000	-2.53000E-001	1.04022E-003	7	...........	-327.66
	175	0.0352	-2.42888E-001	1.69427E-005	0.00000E+000	-2.43000E-001	8.40224E-004	7	...........	-327.66
	176	0.0354	-2.32913E-001	1.73663E-005	0.00000E+000	-2.33000E-001	1.09022E-003	7	...........	-327.66
	177	0.0356	-2.22975E-001	1.77801E-005	0.00000E+000	-2.23000E-001	1.09022E-003	7	...........	-327.66
	178	0.0358	-2.12913E-001	1.81861E-005	0.00000E+000	-2.13000E-001	1.16522E-003	7	...........	-327.66
	179	0.036	-2.03038E-001	1.85802E-005	0.00000E+000	-2.03000E-001	1.19022E-003	7	...........	-327.66
	180	0.0362	-1.92863E-001	1.89662E-005	0.00000E+000	-1.93000E-001	9.90224E-004	7	...........	-327.66
	181	0.0364	-1.83038E-001	1.93453E-005	0.00000E+000	-1.83000E-001	1.14022E-003	7	...........	-327.66
	182	0.0366	-1.73038E-001	1.97106E-005	0.00000E+000	-1.73000E-001	1.01522E-003	7	...........	-327.66
	183	0.0368	-1.62950E-001	2.00716E-005	0.00000E+000	-1.63000E-001	1.01522E-003	7	...........	-327.66
	184	0.037	-1.52963E-001	2.04189E-005	0.00000E+000	-1.53000E-001	1.06522E-003	7	...........	-327.66
	185	0.0372	-1.43050E-001	2.07615E-005	0.00000E+000	-1.43000E-001	1.14022E-003	7	...........	-327.66
	186	0.0374	-1.32913E-001	2.10923E-005	0.00000E+000	-1.33000E-001	1.29022E-003	7	...........	-327.66
	187	0.0376	-1.23075E-001	2.14148E-005	0.00000E+000	-1.23000E-001	1.09022E-003	7	...........	-327.66
	188	0.0378	-1.12838E-001	2.17261E-005	0.00000E+000	-1.13000E-001	1.14022E-003	7	...........	-327.66
	189	0.038	-1.03075E-001	2.20334E-005	0.00000E+000	-1.03000E-001	1.04022E-003	7	...........	-327.66
	190	0.0382	-9.30127E-002	2.23289E-005	0.00000E+000	-9.30000E-002	9.90224E-004	7	...........	-327.66
	191	0.0384	-8.29252E-002	2.26165E-005	0.00000E+000	-8.30000E-002	1.16522E-003	7	...........	-327.66
	192	0.0386	-7.29627E-002	2.28943E-005	0.00000E+000	-7.30000E-002	1.26522E-003	7	...........	-327.66
	193	0.0388	-6.28502E-002	2.31676E-005	0.00000E+000	-6.30000E-002	1.24022E-003	7	...........	-327.66
	194	0.039	-5.29627E-002	2.34293E-005	0.00000E+000	-5.30000E-002	1.16522E-003	7	...........	-327.66
	195	0.0392	-4.30377E-002	2.36889E-005	0.00000E+000	-4.30000E-002	1.04022E-003	7	...........	-327.66
	196	0.0394	-3.28377E-002	2.39332E-005	0.00000E+000	-3.30000E-002	1.14022E-003	7	...........	-327.66
	197	0.0396	-2.30002E-002	2.41749E-005	0.00000E+000	-2.30000E-002	1.06522E-003	7	...........	-327.66
	198	0.0398	-1.29252E-002	2.44115E-005	0.00000E+000	-1.30000E-002	1.09022E-003	7	...........	-327.66
	199	0.04	-3.13769E-003	2.46385E-005	0.00000E+000	-3.00001E-003	1.11522E-003	7	...........	-327.66
	200	0.0402	7.13731E-003	2.48608E-005	0.00000E+000	6.99998E-003	1.14022E-003	7	...........	-327.66
	201	0.0404	1.70373E-002	2.50726E-005	0.00000E+000	1.70000E-002	1.24022E-003	7	...........	-327.66
	202	0.0406	2.68873E-002	2.52796E-005	0.00000E+000	2.70000E-002	1.04022E-003	7	...........	-327.66
	203	0.0408	3.69748E-002	2.54841E-005	0.00000E+000	3.70000E-002	1.19022E-003	7	...........	-327.66
	204	0.041	4.71498E-002	2.56727E-005	0.00000E+000	4.70000E-002	1.11522E-003	7	...........	-327.66
	205	0.0412	5.69498E-002	2.58634E-005	0.00000E+000	5.70000E-002	1.11522E-003	7	...........	-327.66
	206	0.0414	6.70873E-002	2.60495E-005	0.00000E+000	6.70000E-002	1.19022E-003	7	...........	-327.66
	207	0.0416	7.70748E-002	2.62222E-005	0.00000E+000	7.70000E-002	1.11522E-003	7	...........	-327.66
	208	0.0418	8.70498E-002	2.63900E-005	0.00000E+000	8.70000E-002	9.65224E-004	7	...........	-327.66
	209	0.042	9.70373E-002	2.65503E-005	0.00000E+000	9.70000E-002	1.04022E-003	7	...........	-327.66
	210	0.0422	1.07087E-001	2.67065E-005	0.00000E+000	1.07000E-001	1.14022E-003	7	...........	-327.66
	211	0.0424	1.17050E-001	2.68563E-005	0.00000E+000	1.17000E-001	1.11522E-003	7	...........	-327.66
	212	0.0426	1.27100E-001	2.69926E-005	0.00000E+000	1.27000E-001	1.21522E-003	7	...........	-327.66
	213	0.0428	1.36975E-001	2.71218E-005	0.00000E+000	1.37000E-001	1.14022E-003	7	...........	-327.66
	214	0.043	1.47187E-001	2.72466E-005	0.00000E+000	1.47000E-001	9.40224E-004	7	...........	-327.66
	215	0.0432	1.57025E-001	2.73604E-005	0.00000E+000	1.57000E-001	1.24022E-003	7	...........	-327.66
	216	0.0434	1.67050E-001	2.74699E-005	0.00000E+000	1.67000E-001	1.06522E-003	7	...........	-327.66
	217	0.0436	1.77087E-001	2.75679E-005	0.00000E+000	1.77000E-001	1.21522E-003	7	...........	-327.66
	218	0.0438	1.86987E-001	2.76614E-005	0.00000E+000	1.87000E-001	1.06522E-003	7	...........	-327.66
	219	0.044	1.97037E-001	2.77484E-005	0.00000E+000	1.97000E-001	1.06522E-003	7	...........	-327.66
	220	0.0442	2.07025E-001	2.78264E-005	0.00000E+000	2.07000E-001	1.01522E-003	7	...........	-327.66
	221	0.0444	2.17062E-001	2.78972E-005	0.00000E+000	2.17000E-001	1.14022E-003	7	...........	-327.66
	222	0.0446	2.27012E-001	2.79647E-005	0.00000E+000	2.27000E-001	1.16522E-003	7	...........	-327.66
	223	0.0448	2.37075E-001	2.80175E-005	0.00000E+000	2.37000E-001	1.24022E-003	7	...........	-327.66
	224	0.045	2.47037E-001	2.80677E-005	0.00000E+000	2.47000E-001	1.06522E-003	7	...........	-327.66
	225	0.0452	2.56825E-001	2.81122E-005	0.00000E+000	2.57000E-001	1.09022E-003	7	...........	-327.66
	226	0.0454	2.66925E-001	2.81452E-005	0.00000E+000	2.67000E-001	1.21522E-003	7	...........	-327.66
	227	0.0456	2.76900E-001	2.81735E-005	0.00000E+000	2.77000E-001	1.01522E-003	7	...........	-327.66
	228	0.0458	2.86950E-001	2.81907E-005	0.00000E+000	2.87000E-001	1.21522E-003	7	...........	-327.66
	229	0.046	2.96937E-001	2.82052E-005	0.00000E+000	2.97000E-001	1.19022E-003	7	...........	-327.66
	230	0.0462	3.07025E-001	2.82077E-005	0.00000E+000	3.07000E-001	9.90224E-004	7	...........	-327.66
	231	0.0464	3.16962E-001	2.82045E-005	0.00000E+000	3.17000E-001	1.06522E-003	7	...........	-327.66
	232	0.0466	3.27050E-001	2.82010E-005	0.00000E+000	3.27000E-001	1.14022E-003	7	...........	-327.66
	233	0.0468	3.36975E-001	2.81862E-005	0.00000E+000	3.37000E-001	1.24022E-003	7	...........	-327.66
	234	0.047	3.47100E-001	2.81750E-005	0.00000E+000	3.47000E-001	1.04022E-003	7	...........	-327.66
	235	0.0472	3.56987E-001	2.81537E-005	0.00000E+000	3.57000E-001	1.04022E-003	7	...........	-327.66
	236	0.0474	3.67100E-001	2.81315E-005	0.00000E+000	3.67000E-001	1.24022E-003	7	...........	-327.66
	237	0.0476	3.76900E-001	2.81047E-005	0.00000E+000	3.77000E-001	1.16522E-003	7	...........	-327.66
	238	0.0478	3.86987E-001	2.80772E-005	0.00000E+000	3.87000E-001	9.40224E-004	7	...........	-327.66
	239	0.048	3.96912E-001	2.80502E-005	0.00000E+000	3.97000E-001	1.06522E-003	7	...........	-327.66
	240	0.0482	4.07150E-001	2.80162E-005	0.00000E+000	4.07000E-001	1.14022E-003	7	...........	-327.66
	241	0.0484	4.16875E-001	2.79832E-005	0.00000E+000	4.17000E-001	1.06522E-003	7	...........	-327.66
	242	0.0486	4.26912E-001	2.79492E-005	0.00000E+000	4.27000E-001	1.11522E-003	7	...........	-327.66
	243	0.0488	4.36912E-001	2.79190E-005	0.00000E+000	4.37000E-001	1.21522E-003	7	...........	-327.66
	244	0.049	4.47062E-001	2.78867E-005	0.00000E+000	4.47000E-001	1.11522E-003	7	...........	-327.66
	245	0.0492	4.57012E-001	2.78529E-005	0.00000E+000	4.57000E-001	1.01522E-003	7	...........	-327.66
	246	0.0494	4.66875E-001	2.78222E-005	0.00000E+000	4.67000E-001	1.11522E-003	7	...........	-327.66
	247	0.0496	4.76837E-001	2.77897E-005	0.00000E+000	4.77000E-001	1.11522E-003	7	...........	-327.66
	248	0.0498	4.86975E-001	2.77577E-005	0.00000E+000	4.87000E-001	1.06522E-003	7	...........	-327.66
	249	0.05	4.96887E-001	2.77282E-005	0.00000E+000	4.97000E-001	1.09022E-003	7	...........	-327.66
	250	0.0502	5.07037E-001	2.76994E-005	0.00000E+000	5.07000E-001	1.06522E-003	7	...........	-327.66
	251	0.0504	5.16850E-001	2.76739E-005	0.00000E+000	5.17000E-001	1.09022E-003	7	...........	-327.66
	252	0.0506	5.27087E-001	2.76502E-005	0.00000E+000	5.27000E-001	1.14022E-003	7	...........	-327.66
	253	0.0508	5.36850E-001	2.76287E-005	0.00000E+000	5.37000E-001	1.16522E-003	7	...........	-327.66
	254	0.051	5.46887E-001	2.76117E-005	0.00000E+000	5.47000E-001	9.90224E-004	7	...........	-327.66
	255	0.0512	5.56962E-001	2.75954E-005	0.00000E+000	5.57000E-001	1.11522E-003	7	...........	-327.66
	256	0.0514	5.66937E-001	2.75809E-005	0.00000E+000	5.67000E-001	1.16522E-003	7	...........	-327.66
	257	0.0516	5.76875E-001	2.75694E-005	0.00000E+000	5.77000E-001	1.29022E-003	7	...........	-327.66
	258	0.0518	5.87012E-001	2.75614E-005	0.00000E+000	5.87000E-001	1.09022E-003	7	...........	-327.66
	259	0.052	5.96837E-001	2.75637E-005	0.00000E+000	5.97000E-001	1.01522E-003	7	...........	-327.66
CURVE2	TABLE
	Pt	T	Vf	Im	Vu	Sig	Ach	IERange	Over	Temp
	#	s	V vs. Ref.	A	V	V	V	#	bits	deg C
	260	0.0522	5.89937E-001	2.54721E-005	0.00000E+000	5.90000E-001	1.14022E-003	7	...........	-327.66
	261	0.0524	5.79937E-001	2.31813E-005	0.00000E+000	5.80000E-001	9.65224E-004	7	...........	-327.66
	262	0.0526	5.69987E-001	2.12826E-005	0.00000E+000	5.70000E-001	1.06522E-003	7	...........	-327.66
	263	0.0528	5.59962E-001	1.96668E-005	0.00000E+000	5.60000E-001	9.15224E-004	7	...........	-327.66
	264	0.053	5.49937E-001	1.82574E-005	0.00000E+000	5.50000E-001	1.06522E-003	7	...........	-327.66
	265	0.0532	5.39937E-001	1.69885E-005	0.00000E+000	5.40000E-001	1.14022E-003	7	...........	-327.66
	266	0.0534	5.30037E-001	1.58341E-005	0.00000E+000	5.30000E-001	1.09022E-003	7	...........	-327.66
	267	0.0536	5.19962E-001	1.47694E-005	0.00000E+000	5.20000E-001	1.09022E-003	7	...........	-327.66
	268	0.0538	5.09912E-001	1.37743E-005	0.00000E+000	5.10000E-001	1.01522E-003	7	...........	-327.66
	269	0.054	4.99937E-001	1.28432E-005	0.00000E+000	5.00000E-001	1.11522E-003	7	...........	-327.66
	270	0.0542	4.89937E-001	1.19603E-005	0.00000E+000	4.90000E-001	9.15224E-004	7	...........	-327.66
	271	0.0544	4.79962E-001	1.11242E-005	0.00000E+000	4.80000E-001	1.04022E-003	7	...........	-327.66
	272	0.0546	4.70000E-001	1.03236E-005	0.00000E+000	4.70000E-001	1.11522E-003	7	...........	-327.66
	273	0.0548	4.59937E-001	9.56271E-006	0.00000E+000	4.60000E-001	1.04022E-003	7	...........	-327.66
	274	0.055	4.50137E-001	8.82711E-006	0.00000E+000	4.50000E-001	1.04022E-003	7	...........	-327.66
	275	0.0552	4.39987E-001	8.11676E-006	0.00000E+000	4.40000E-001	1.06522E-003	7	...........	-327.66
	276	0.0554	4.30075E-001	7.43567E-006	0.00000E+000	4.30000E-001	1.01522E-003	7	...........	-327.66
	277	0.0556	4.20050E-001	6.77508E-006	0.00000E+000	4.20000E-001	1.09022E-003	7	...........	-327.66
	278	0.0558	4.10100E-001	6.13149E-006	0.00000E+000	4.10000E-001	1.14022E-003	7	...........	-327.66
	279	0.056	3.99937E-001	5.51366E-006	0.00000E+000	4.00000E-001	1.01522E-003	7	...........	-327.66
	280	0.0562	3.89925E-001	4.90807E-006	0.00000E+000	3.90000E-001	1.06522E-003	7	...........	-327.66
	281	0.0564	3.79987E-001	4.32149E-006	0.00000E+000	3.80000E-001	1.16522E-003	7	...........	-327.66
	282	0.0566	3.70087E-001	3.74491E-006	0.00000E+000	3.70000E-001	1.14022E-003	7	...........	-327.66
	283	0.0568	3.59987E-001	3.18809E-006	0.00000E+000	3.60000E-001	9.15224E-004	7	...........	-327.66
	284	0.057	3.50062E-001	2.63976E-006	0.00000E+000	3.50000E-001	1.11522E-003	7	...........	-327.66
	285	0.0572	3.40012E-001	2.10769E-006	0.00000E+000	3.40000E-001	9.40224E-004	7	...........	-327.66
	286	0.0574	3.30125E-001	1.58312E-006	0.00000E+000	3.30000E-001	1.19022E-003	7	...........	-327.66
	287	0.0576	3.19987E-001	1.07105E-006	0.00000E+000	3.20000E-001	9.65224E-004	7	...........	-327.66
	288	0.0578	3.10037E-001	5.64731E-007	0.00000E+000	3.10000E-001	1.19022E-003	7	...........	-327.66
	289	0.058	2.99987E-001	7.19137E-008	0.00000E+000	3.00000E-001	1.11522E-003	7	...........	-327.66
	290	0.0582	2.90050E-001	-4.10152E-007	0.00000E+000	2.90000E-001	1.29022E-003	7	...........	-327.66
	291	0.0584	2.79937E-001	-8.90467E-007	0.00000E+000	2.80000E-001	1.09022E-003	7	...........	-327.66
	292	0.0586	2.70137E-001	-1.35528E-006	0.00000E+000	2.70000E-001	9.15224E-004	7	...........	-327.66
	293	0.0588	2.60012E-001	-1.81709E-006	0.00000E+000	2.60000E-001	1.01522E-003	7	...........	-327.66
	294	0.059	2.50225E-001	-2.27191E-006	0.00000E+000	2.50000E-001	1.16522E-003	7	...........	-327.66
	295	0.0592	2.40025E-001	-2.71722E-006	0.00000E+000	2.40000E-001	1.11522E-003	7	...........	-327.66
	296	0.0594	2.30037E-001	-3.15628E-006	0.00000E+000	2.30000E-001	1.19022E-003	7	...........	-327.66
	297	0.0596	2.20050E-001	-3.59084E-006	0.00000E+000	2.20000E-001	1.19022E-003	7	...........	-327.66
	298	0.0598	2.10062E-001	-4.01814E-006	0.00000E+000	2.10000E-001	1.16522E-003	7	...........	-327.66
	299	0.06	2.00125E-001	-4.44220E-006	0.00000E+000	2.00000E-001	1.11522E-003	7	...........	-327.66
	300	0.0602	1.90162E-001	-4.85701E-006	0.00000E+000	1.90000E-001	1.24022E-003	7	...........	-327.66
	301	0.0604	1.80050E-001	-5.27081E-006	0.00000E+000	1.80000E-001	1.16522E-003	7	...........	-327.66
	302	0.0606	1.70212E-001	-5.68037E-006	0.00000E+000	1.70000E-001	1.14022E-003	7	...........	-327.66
	303	0.0608	1.60150E-001	-6.08117E-006	0.00000E+000	1.60000E-001	1.21522E-003	7	...........	-327.66
	304	0.061	1.50087E-001	-6.47923E-006	0.00000E+000	1.50000E-001	1.06522E-003	7	...........	-327.66
	305	0.0612	1.40162E-001	-6.87303E-006	0.00000E+000	1.40000E-001	1.14022E-003	7	...........	-327.66
	306	0.0614	1.30325E-001	-7.26459E-006	0.00000E+000	1.30000E-001	9.15224E-004	7	...........	-327.66
	307	0.0616	1.20087E-001	-7.65314E-006	0.00000E+000	1.20000E-001	1.09022E-003	7	...........	-327.66
	308	0.0618	1.10062E-001	-8.03094E-006	0.00000E+000	1.10000E-001	9.90224E-004	7	...........	-327.66
	309	0.062	1.00050E-001	-8.41374E-006	0.00000E+000	1.00000E-001	9.40224E-004	7	...........	-327.66
	310	0.0622	9.03623E-002	-8.78729E-006	0.00000E+000	9.00000E-002	1.01522E-003	7	...........	-327.66
	311	0.0624	8.00748E-002	-9.15759E-006	0.00000E+000	8.00000E-002	1.19022E-003	7	...........	-327.66
	312	0.0626	7.01123E-002	-9.53239E-006	0.00000E+000	7.00000E-002	1.09022E-003	7	...........	-327.66
	313	0.0628	6.01498E-002	-9.89369E-006	0.00000E+000	6.00000E-002	1.01522E-003	7	...........	-327.66
	314	0.063	5.02498E-002	-1.02560E-005	0.00000E+000	5.00000E-002	1.14022E-003	7	...........	-327.66
	315	0.0632	4.00498E-002	-1.06158E-005	0.00000E+000	4.00000E-002	1.06522E-003	7	...........	-327.66
	316	0.0634	3.00623E-002	-1.09738E-005	0.00000E+000	3.00000E-002	1.09022E-003	7	...........	-327.66
	317	0.0636	2.00873E-002	-1.13266E-005	0.00000E+000	2.00000E-002	1.04022E-003	7	...........	-327.66
	318	0.0638	1.01998E-002	-1.16739E-005	0.00000E+000	9.99999E-003	1.09022E-003	7	...........	-327.66
	319	0.064	7.48125E-005	-1.20222E-005	0.00000E+000	-1.49012E-008	1.16522E-003	7	...........	-327.66
	320	0.0642	-9.72519E-003	-1.23708E-005	0.00000E+000	-1.00000E-002	1.16522E-003	7	...........	-327.66
	321	0.0644	-1.98252E-002	-1.27163E-005	0.00000E+000	-2.00000E-002	1.19022E-003	7	...........	-327.66
	322	0.0646	-2.98252E-002	-1.30561E-005	0.00000E+000	-3.00000E-002	1.09022E-003	7	...........	-327.66
	323	0.0648	-3.98252E-002	-1.33927E-005	0.00000E+000	-4.00000E-002	1.09022E-003	7	...........	-327.66
	324	0.065	-4.99877E-002	-1.37267E-005	0.00000E+000	-5.00000E-002	1.14022E-003	7	...........	-327.66
	325	0.0652	-5.98877E-002	-1.40620E-005	0.00000E+000	-6.00000E-002	1.16522E-003	7	...........	-327.66
	326	0.0654	-6.97877E-002	-1.43918E-005	0.00000E+000	-7.00000E-002	1.01522E-003	7	...........	-327.66
	327	0.0656	-7.99002E-002	-1.47181E-005	0.00000E+000	-8.00000E-002	1.09022E-003	7	...........	-327.66
	328	0.0658	-8.99127E-002	-1.50441E-005	0.00000E+000	-9.00000E-002	1.04022E-003	7	...........	-327.66
	329	0.066	-9.99127E-002	-1.53659E-005	0.00000E+000	-1.00000E-001	1.04022E-003	7	...........	-327.66
	330	0.0662	-1.09850E-001	-1.56855E-005	0.00000E+000	-1.10000E-001	1.11522E-003	7	...........	-327.66
	331	0.0664	-1.19850E-001	-1.60050E-005	0.00000E+000	-1.20000E-001	1.04022E-003	7	...........	-327.66
	332	0.0666	-1.29838E-001	-1.63231E-005	0.00000E+000	-1.30000E-001	1.06522E-003	7	...........	-327.66
	333	0.0668	-1.39688E-001	-1.66399E-005	0.00000E+000	-1.40000E-001	1.14022E-003	7	...........	-327.66
	334	0.067	-1.49725E-001	-1.69547E-005	0.00000E+000	-1.50000E-001	1.16522E-003	7	...........	-327.66
	335	0.0672	-1.59863E-001	-1.72712E-005	0.00000E+000	-1.60000E-001	1.16522E-003	7	...........	-327.66
	336	0.0674	-1.69813E-001	-1.75832E-005	0.00000E+000	-1.70000E-001	1.01522E-003	7	...........	-327.66
	337	0.0676	-1.79950E-001	-1.78978E-005	0.00000E+000	-1.80000E-001	1.14022E-003	7	...........	-327.66
	338	0.0678	-1.89750E-001	-1.82106E-005	0.00000E+000	-1.90000E-001	1.11522E-003	7	...........	-327.66
	339	0.068	-1.99950E-001	-1.85246E-005	0.00000E+000	-2.00000E-001	1.19022E-003	7	...........	-327.66
	340	0.0682	-2.09750E-001	-1.88352E-005	0.00000E+000	-2.10000E-001	1.14022E-003	7	...........	-327.66
	341	0.0684	-2.19813E-001	-1.91445E-005	0.00000E+000	-2.20000E-001	1.01522E-003	7	...........	-327.66
	342	0.0686	-2.29700E-001	-1.94565E-005	0.00000E+000	-2.30000E-001	1.11522E-003	7	...........	-327.66
	343	0.0688	-2.39850E-001	-1.97643E-005	0.00000E+000	-2.40000E-001	1.16522E-003	7	...........	-327.66
	344	0.069	-2.49850E-001	-2.00771E-005	0.00000E+000	-2.50000E-001	1.11522E-003	7	...........	-327.66
	345	0.0692	-2.59763E-001	-2.03849E-005	0.00000E+000	-2.60000E-001	9.40224E-004	7	...........	-327.66
	346	0.0694	-2.69688E-001	-2.06992E-005	0.00000E+000	-2.70000E-001	1.14022E-003	7	...........	-327.66
	347	0.0696	-2.79813E-001	-2.10062E-005	0.00000E+000	-2.80000E-001	1.04022E-003	7	...........	-327.66
	348	0.0698	-2.89813E-001	-2.13123E-005	0.00000E+000	-2.90000E-001	9.90224E-004	7	...........	-327.66
	349	0.07	-2.99813E-001	-2.16243E-005	0.00000E+000	-3.00000E-001	1.04022E-003	7	...........	-327.66
	350	0.0702	-3.09763E-001	-2.19341E-005	0.00000E+000	-3.10000E-001	1.01522E-003	7	...........	-327.66
	351	0.0704	-3.19775E-001	-2.22404E-005	0.00000E+000	-3.20000E-001	1.06522E-003	7	...........	-327.66
	352	0.0706	-3.29788E-001	-2.25457E-005	0.00000E+000	-3.30000E-001	1.11522E-003	7	...........	-327.66
	353	0.0708	-3.39838E-001	-2.28525E-005	0.00000E+000	-3.40000E-001	1.19022E-003	7	...........	-327.66
	354	0.071	-3.49800E-001	-2.31550E-005	0.00000E+000	-3.50000E-001	1.04022E-003	7	...........	-327.66
	355	0.0712	-3.59788E-001	-2.34618E-005	0.00000E+000	-3.60000E-001	1.04022E-003	7	...........	-327.66
	356	0.0714	-3.69788E-001	-2.37668E-005	0.00000E+000	-3.70000E-001	1.04022E-003	7	...........	-327.66
	357	0.0716	-3.79813E-001	-2.40741E-005	0.00000E+000	-3.80000E-001	1.14022E-003	7	...........	-327.66
	358	0.0718	-3.89713E-001	-2.43729E-005	0.00000E+000	-3.90000E-001	1.09022E-003	7	...........	-327.66
	359	0.072	-3.99750E-001	-2.46715E-005	0.00000E+000	-4.00000E-001	1.21522E-003	7	...........	-327.66
	360	0.0722	-4.09713E-001	-2.49725E-005	0.00000E+000	-4.10000E-001	1.11522E-003	7	...........	-327.66
	361	0.0724	-4.19738E-001	-2.52773E-005	0.00000E+000	-4.20000E-001	1.24022E-003	7	...........	-327.66
	362	0.0726	-4.29763E-001	-2.55756E-005	0.00000E+000	-4.30000E-001	9.65224E-004	7	...........	-327.66
	363	0.0728	-4.39788E-001	-2.58714E-005	0.00000E+000	-4.40000E-001	1.14022E-003	7	...........	-327.66
	364	0.073	-4.49750E-001	-2.61619E-005	0.00000E+000	-4.50000E-001	1.21522E-003	7	...........	-327.66
	365	0.0732	-4.59838E-001	-2.64577E-005	0.00000E+000	-4.60000E-001	1.06522E-003	7	...........	-327.66
	366	0.0734	-4.69713E-001	-2.67487E-005	0.00000E+000	-4.70000E-001	1.09022E-003	7	...........	-327.66
	367	0.0736	-4.79725E-001	-2.70440E-005	0.00000E+000	-4.80000E-001	1.19022E-003	7	...........	-327.66
	368	0.0738	-4.89725E-001	-2.73308E-005	0.00000E+000	-4.90000E-001	9.40224E-004	7	...........	-327.66
	369	0.074	-4.99700E-001	-2.76169E-005	0.00000E+000	-5.00000E-001	1.14022E-003	7	...........	-327.66
	370	0.0742	-5.09650E-001	-2.79051E-005	0.00000E+000	-5.10000E-001	1.24022E-003	7	...........	-327.66
	371	0.0744	-5.19738E-001	-2.81897E-005	0.00000E+000	-5.20000E-001	1.06522E-003	7	...........	-327.66
	372	0.0746	-5.29738E-001	-2.84710E-005	0.00000E+000	-5.30000E-001	1.16522E-003	7	...........	-327.66
	373	0.0748	-5.39738E-001	-2.87493E-005	0.00000E+000	-5.40000E-001	1.06522E-003	7	...........	-327.66
	374	0.075	-5.49663E-001	-2.90286E-005	0.00000E+000	-5.50000E-001	1.16522E-003	7	...........	-327.66
	375	0.0752	-5.59750E-001	-2.93026E-005	0.00000E+000	-5.60000E-001	1.19022E-003	7	...........	-327.66
	376	0.0754	-5.69688E-001	-2.95759E-005	0.00000E+000	-5.70000E-001	1.21522E-003	7	...........	-327.66
	377	0.0756	-5.79738E-001	-2.98437E-005	0.00000E+000	-5.80000E-001	1.09022E-003	7	...........	-327.66
	378	0.0758	-5.89725E-001	-3.01115E-005	0.00000E+000	-5.90000E-001	1.09022E-003	7	...........	-327.66
	379	0.076	-5.99763E-001	-3.03742E-005	0.00000E+000	-6.00000E-001	1.01522E-003	7	...........	-327.66
	380	0.0762	-6.09713E-001	-3.06355E-005	0.00000E+000	-6.10000E-001	9.65224E-004	7	...........	-327.66
	381	0.0764	-6.19688E-001	-3.08916E-005	0.00000E+000	-6.20000E-001	1.16522E-003	7	...........	-327.66
	382	0.0766	-6.29588E-001	-3.11436E-005	0.00000E+000	-6.30000E-001	1.29022E-003	7	...........	-327.66
	383	0.0768	-6.39713E-001	-3.13969E-005	0.00000E+000	-6.40000E-001	1.06522E-003	7	...........	-327.66
	384	0.077	-6.49688E-001	-3.16362E-005	0.00000E+000	-6.50000E-001	1.09022E-003	7	...........	-327.66
	385	0.0772	-6.59650E-001	-3.18802E-005	0.00000E+000	-6.60000E-001	1.24022E-003	7	...........	-327.66
	386	0.0774	-6.69663E-001	-3.21152E-005	0.00000E+000	-6.70000E-001	1.19022E-003	7	...........	-327.66
	387	0.0776	-6.79625E-001	-3.23483E-005	0.00000E+000	-6.80000E-001	1.04022E-003	7	...........	-327.66
	388	0.0778	-6.89713E-001	-3.25743E-005	0.00000E+000	-6.90000E-001	1.09022E-003	7	...........	-327.66
	389	0.078	-6.99663E-001	-3.27961E-005	0.00000E+000	-7.00000E-001	1.24022E-003	7	...........	-327.66
	390	0.0782	-7.09575E-001	-3.30126E-005	0.00000E+000	-7.10000E-001	1.04022E-003	7	...........	-327.66
	391	0.0784	-7.19675E-001	-3.32239E-005	0.00000E+000	-7.20000E-001	1.11522E-003	7	...........	-327.66
	392	0.0786	-7.29625E-001	-3.34269E-005	0.00000E+000	-7.30000E-001	1.04022E-003	7	...........	-327.66
	393	0.0788	-7.39675E-001	-3.36199E-005	0.00000E+000	-7.40000E-001	1.06522E-003	7	...........	-327.66
	394	0.079	-7.49625E-001	-3.38120E-005	0.00000E+000	-7.50000E-001	1.01522E-003	7	...........	-327.66
	395	0.0792	-7.59688E-001	-3.39920E-005	0.00000E+000	-7.60000E-001	1.04022E-003	7	...........	-327.66
	396	0.0794	-7.69663E-001	-3.41673E-005	0.00000E+000	-7.70000E-001	1.14022E-003	7	...........	-327.66
	397	0.0796	-7.79513E-001	-3.43325E-005	0.00000E+000	-7.80000E-001	1.09022E-003	7	...........	-327.66
	398	0.0798	-7.89663E-001	-3.44858E-005	0.00000E+000	-7.90000E-001	1.04022E-003	7	...........	-327.66
	399	0.08	-7.99638E-001	-3.46318E-005	0.00000E+000	-8.00000E-001	9.65224E-004	7	...........	-327.66
	400	0.0802	-8.09575E-001	-3.47668E-005	0.00000E+000	-8.10000E-001	1.16522E-003	7	...........	-327.66
	401	0.0804	-8.19663E-001	-3.48888E-005	0.00000E+000	-8.20000E-001	1.06522E-003	7	...........	-327.66
	402	0.0806	-8.29625E-001	-3.50026E-005	0.00000E+000	-8.30000E-001	1.29022E-003	7	...........	-327.66
	403	0.0808	-8.39700E-001	-3.51024E-005	0.00000E+000	-8.40000E-001	1.16522E-003	7	...........	-327.66
	404	0.081	-8.49713E-001	-3.51834E-005	0.00000E+000	-8.50000E-001	1.09022E-003	7	...........	-327.66
	405	0.0812	-8.59688E-001	-3.52552E-005	0.00000E+000	-8.60000E-001	1.11522E-003	7	...........	-327.66
	406	0.0814	-8.69650E-001	-3.53092E-005	0.00000E+000	-8.70000E-001	1.11522E-003	7	...........	-327.66
	407	0.0816	-8.79650E-001	-3.53527E-005	0.00000E+000	-8.80000E-001	1.16522E-003	7	...........	-327.66
	408	0.0818	-8.89663E-001	-3.53704E-005	0.00000E+000	-8.90000E-001	1.11522E-003	7	...........	-327.66
	409	0.082	-8.99638E-001	-3.53677E-005	0.00000E+000	-9.00000E-001	1.24022E-003	7	...........	-327.66
	410	0.0822	-8.89650E-001	-3.31974E-005	0.00000E+000	-8.90000E-001	1.21522E-003	7	...........	-327.66
	411	0.0824	-8.79738E-001	-3.10773E-005	0.00000E+000	-8.80000E-001	1.11522E-003	7	...........	-327.66
	412	0.0826	-8.69663E-001	-2.92568E-005	0.00000E+000	-8.70000E-001	1.19022E-003	7	...........	-327.66
	413	0.0828	-8.59713E-001	-2.76311E-005	0.00000E+000	-8.60000E-001	1.16522E-003	7	...........	-327.66
	414	0.083	-8.49738E-001	-2.61449E-005	0.00000E+000	-8.50000E-001	1.11522E-003	7	...........	-327.66
	415	0.0832	-8.39675E-001	-2.47625E-005	0.00000E+000	-8.40000E-001	9.40224E-004	7	...........	-327.66
	416	0.0834	-8.29625E-001	-2.34543E-005	0.00000E+000	-8.30000E-001	9.90224E-004	7	...........	-327.66
	417	0.0836	-8.19788E-001	-2.22141E-005	0.00000E+000	-8.20000E-001	1.09022E-003	7	...........	-327.66
	418	0.0838	-8.09675E-001	-2.10197E-005	0.00000E+000	-8.10000E-001	1.06522E-003	7	...........	-327.66
	419	0.084	-7.99763E-001	-1.98706E-005	0.00000E+000	-8.00000E-001	8.90224E-004	7	...........	-327.66
	420	0.0842	-7.89750E-001	-1.87599E-005	0.00000E+000	-7.90000E-001	1.09022E-003	7	...........	-327.66
	421	0.0844	-7.79563E-001	-1.76793E-005	0.00000E+000	-7.80000E-001	1.06522E-003	7	...........	-327.66
	422	0.0846	-7.69713E-001	-1.66279E-005	0.00000E+000	-7.70000E-001	1.04022E-003	7	...........	-327.66
	423	0.0848	-7.59750E-001	-1.55995E-005	0.00000E+000	-7.60000E-001	1.04022E-003	7	...........	-327.66
	424	0.085	-7.49663E-001	-1.45983E-005	0.00000E+000	-7.50000E-001	1.14022E-003	7	...........	-327.66
	425	0.0852	-7.39825E-001	-1.36160E-005	0.00000E+000	-7.40000E-001	1.06522E-003	7	...........	-327.66
	426	0.0854	-7.29700E-001	-1.26533E-005	0.00000E+000	-7.30000E-001	1.29022E-003	7	...........	-327.66
	427	0.0856	-7.19738E-001	-1.17082E-005	0.00000E+000	-7.20000E-001	8.90224E-004	7	...........	-327.66
	428	0.0858	-7.09688E-001	-1.07823E-005	0.00000E+000	-7.10000E-001	1.06522E-003	7	...........	-327.66
	429	0.086	-6.99700E-001	-9.87494E-006	0.00000E+000	-7.00000E-001	1.16522E-003	7	...........	-327.66
	430	0.0862	-6.89875E-001	-8.98357E-006	0.00000E+000	-6.90000E-001	1.14022E-003	7	...........	-327.66
	431	0.0864	-6.79725E-001	-8.10945E-006	0.00000E+000	-6.80000E-001	1.04022E-003	7	...........	-327.66
	432	0.0866	-6.69738E-001	-7.24983E-006	0.00000E+000	-6.70000E-001	1.11522E-003	7	...........	-327.66
	433	0.0868	-6.59838E-001	-6.40597E-006	0.00000E+000	-6.60000E-001	1.11522E-003	7	...........	-327.66
	434	0.087	-6.49713E-001	-5.57586E-006	0.00000E+000	-6.50000E-001	1.16522E-003	7	...........	-327.66
	435	0.0872	-6.39825E-001	-4.76450E-006	0.00000E+000	-6.40000E-001	1.06522E-003	7	...........	-327.66
	436	0.0874	-6.29713E-001	-3.96139E-006	0.00000E+000	-6.30000E-001	1.19022E-003	7	...........	-327.66
	437	0.0876	-6.19788E-001	-3.18128E-006	0.00000E+000	-6.20000E-001	1.14022E-003	7	...........	-327.66
	438	0.0878	-6.09788E-001	-2.40992E-006	0.00000E+000	-6.10000E-001	9.65224E-004	7	...........	-327.66
	439	0.088	-5.99888E-001	-1.65057E-006	0.00000E+000	-6.00000E-001	1.01522E-003	7	...........	-327.66
	440	0.0882	-5.89738E-001	-9.03969E-007	0.00000E+000	-5.90000E-001	1.16522E-003	7	...........	-327.66
	441	0.0884	-5.79838E-001	-1.75620E-007	0.00000E+000	-5.80000E-001	1.06522E-003	7	...........	-327.66
	442	0.0886	-5.69913E-001	5.47479E-007	0.00000E+000	-5.70000E-001	9.90224E-004	7	...........	-327.66
	443	0.0888	-5.59963E-001	1.25482E-006	0.00000E+000	-5.60000E-001	1.16522E-003	7	...........	-327.66
	444	0.089	-5.49800E-001	1.95367E-006	0.00000E+000	-5.50000E-001	1.09022E-003	7	...........	-327.66
	445	0.0892	-5.39963E-001	2.63876E-006	0.00000E+000	-5.40000E-001	1.04022E-003	7	...........	-327.66
	446	0.0894	-5.29963E-001	3.31586E-006	0.00000E+000	-5.30000E-001	1.14022E-003	7	...........	-327.66
	447	0.0896	-5.20013E-001	3.98220E-006	0.00000E+000	-5.20000E-001	1.14022E-003	7	...........	-327.66
	448	0.0898	-5.09813E-001	4.63904E-006	0.00000E+000	-5.10000E-001	1.14022E-003	7	...........	-327.66
	449	0.09	-4.99813E-001	5.28912E-006	0.00000E+000	-5.00000E-001	1.09022E-003	7	...........	-327.66
	450	0.0902	-4.89788E-001	5.93021E-006	0.00000E+000	-4.90000E-001	1.19022E-003	7	...........	-327.66
	451	0.0904	-4.79888E-001	6.56080E-006	0.00000E+000	-4.80000E-001	1.21522E-003	7	...........	-327.66
	452	0.0906	-4.69825E-001	7.17938E-006	0.00000E+000	-4.70000E-001	1.14022E-003	7	...........	-327.66
	453	0.0908	-4.59913E-001	7.79397E-006	0.00000E+000	-4.60000E-001	1.11522E-003	7	...........	-327.66
	454	0.091	-4.49963E-001	8.39855E-006	0.00000E+000	-4.50000E-001	9.90224E-004	7	...........	-327.66
	455	0.0912	-4.39938E-001	8.99788E-006	0.00000E+000	-4.40000E-001	1.19022E-003	7	...........	-327.66
	456	0.0914	-4.29813E-001	9.58921E-006	0.00000E+000	-4.30000E-001	9.90224E-004	7	...........	-327.66
	457	0.0916	-4.20013E-001	1.01713E-005	0.00000E+000	-4.20000E-001	1.04022E-003	7	...........	-327.66
	458	0.0918	-4.10000E-001	1.07469E-005	0.00000E+000	-4.10000E-001	9.90224E-004	7	...........	-327.66
	459	0.092	-4.00013E-001	1.13117E-005	0.00000E+000	-4.00000E-001	9.40224E-004	7	...........	-327.66
	460	0.0922	-3.89813E-001	1.18703E-005	0.00000E+000	-3.90000E-001	1.29022E-003	7	...........	-327.66
	461	0.0924	-3.80013E-001	1.24251E-005	0.00000E+000	-3.80000E-001	1.14022E-003	7	...........	-327.66
	462	0.0926	-3.69850E-001	1.29677E-005	0.00000E+000	-3.70000E-001	1.19022E-003	7	...........	-327.66
	463	0.0928	-3.59975E-001	1.35057E-005	0.00000E+000	-3.60000E-001	1.11522E-003	7	...........	-327.66
	464	0.093	-3.49838E-001	1.40348E-005	0.00000E+000	-3.50000E-001	1.06522E-003	7	...........	-327.66
	465	0.0932	-3.39963E-001	1.45486E-005	0.00000E+000	-3.40000E-001	1.09022E-003	7	...........	-327.66
	466	0.0934	-3.29988E-001	1.50617E-005	0.00000E+000	-3.30000E-001	1.04022E-003	7	...........	-327.66
	467	0.0936	-3.20025E-001	1.55658E-005	0.00000E+000	-3.20000E-001	1.09022E-003	7	...........	-327.66
	468	0.0938	-3.09925E-001	1.60581E-005	0.00000E+000	-3.10000E-001	1.29022E-003	7	...........	-327.66
	469	0.094	-3.00038E-001	1.65442E-005	0.00000E+000	-3.00000E-001	1.11522E-003	7	...........	-327.66
	470	0.0942	-2.89863E-001	1.70167E-005	0.00000E+000	-2.90000E-001	1.11522E-003	7	...........	-327.66
	471	0.0944	-2.80038E-001	1.74820E-005	0.00000E+000	-2.80000E-001	1.11522E-003	7	...........	-327.66
	472	0.0946	-2.69925E-001	1.79406E-005	0.00000E+000	-2.70000E-001	1.06522E-003	7	...........	-327.66
	473	0.0948	-2.60063E-001	1.83859E-005	0.00000E+000	-2.60000E-001	1.09022E-003	7	...........	-327.66
	474	0.095	-2.50050E-001	1.88257E-005	0.00000E+000	-2.50000E-001	1.06522E-003	7	...........	-327.66
	475	0.0952	-2.39950E-001	1.92510E-005	0.00000E+000	-2.40000E-001	1.11522E-003	7	...........	-327.66
	476	0.0954	-2.29925E-001	1.96676E-005	0.00000E+000	-2.30000E-001	1.21522E-003	7	...........	-327.66
	477	0.0956	-2.19850E-001	2.00749E-005	0.00000E+000	-2.20000E-001	8.90224E-004	7	...........	-327.66
	478	0.0958	-2.10013E-001	2.04724E-005	0.00000E+000	-2.10000E-001	1.09022E-003	7	...........	-327.66
	479	0.096	-2.00038E-001	2.08630E-005	0.00000E+000	-2.00000E-001	1.19022E-003	7	...........	-327.66
	480	0.0962	-1.89788E-001	2.12383E-005	0.00000E+000	-1.90000E-001	1.01522E-003	7	...........	-327.66
	481	0.0964	-1.80050E-001	2.16008E-005	0.00000E+000	-1.80000E-001	1.16522E-003	7	...........	-327.66
	482	0.0966	-1.70013E-001	2.19614E-005	0.00000E+000	-1.70000E-001	1.09022E-003	7	...........	-327.66
	483	0.0968	-1.60000E-001	2.23047E-005	0.00000E+000	-1.60000E-001	1.01522E-003	7	...........	-327.66
	484	0.097	-1.50050E-001	2.26422E-005	0.00000E+000	-1.50000E-001	1.09022E-003	7	...........	-327.66
	485	0.0972	-1.40038E-001	2.29698E-005	0.00000E+000	-1.40000E-001	1.19022E-003	7	...........	-327.66
	486	0.0974	-1.30088E-001	2.32858E-005	0.00000E+000	-1.30000E-001	1.19022E-003	7	...........	-327.66
	487	0.0976	-1.20025E-001	2.35946E-005	0.00000E+000	-1.20000E-001	1.14022E-003	7	...........	-327.66
	488	0.0978	-1.10000E-001	2.38934E-005	0.00000E+000	-1.10000E-001	9.90224E-004	7	...........	-327.66
	489	0.098	-1.00000E-001	2.41824E-005	0.00000E+000	-1.00000E-001	1.11522E-003	7	...........	-327.66
	490	0.0982	-8.99252E-002	2.44667E-005	0.00000E+000	-9.00000E-002	1.09022E-003	7	...........	-327.66
	491	0.0984	-8.00377E-002	2.47405E-005	0.00000E+000	-8.00000E-002	1.16522E-003	7	...........	-327.66
	492	0.0986	-6.99752E-002	2.50093E-005	0.00000E+000	-7.00000E-002	8.90224E-004	7	...........	-327.66
	493	0.0988	-6.00252E-002	2.52631E-005	0.00000E+000	-6.00000E-002	1.11522E-003	7	...........	-327.66
	494	0.099	-4.99502E-002	2.55154E-005	0.00000E+000	-5.00000E-002	1.16522E-003	7	...........	-327.66
	495	0.0992	-4.00127E-002	2.57569E-005	0.00000E+000	-4.00000E-002	1.11522E-003	7	...........	-327.66
	496	0.0994	-2.99752E-002	2.59964E-005	0.00000E+000	-3.00000E-002	1.21522E-003	7	...........	-327.66
	497	0.0996	-2.00252E-002	2.62257E-005	0.00000E+000	-2.00000E-002	1.09022E-003	7	...........	-327.66
	498	0.0998	-9.87519E-003	2.64520E-005	0.00000E+000	-1.00000E-002	1.16522E-003	7	...........	-327.66
	499	0.1	-6.26875E-005	2.66715E-005	0.00000E+000	-1.49012E-008	1.09022E-003	7	...........	-327.66
	500	0.1002	9.97481E-003	2.68866E-005	0.00000E+000	9.99999E-003	1.04022E-003	7	...........	-327.66
	501	0.1004	1.99623E-002	2.70961E-005	0.00000E+000	2.00000E-002	1.01522E-003	7	...........	-327.66
	502	0.1006	2.99873E-002	2.73034E-005	0.00000E+000	3.00000E-002	1.14022E-003	7	...........	-327.66
	503	0.1008	3.99248E-002	2.75044E-005	0.00000E+000	4.00000E-002	1.29022E-003	7	...........	-327.66
	504	0.101	4.99873E-002	2.77014E-005	0.00000E+000	5.00000E-002	1.09022E-003	7	...........	-327.66
	505	0.1012	5.99873E-002	2.78955E-005	0.00000E+000	6.00000E-002	1.11522E-003	7	...........	-327.66
	506	0.1014	7.00623E-002	2.80812E-005	0.00000E+000	7.00000E-002	1.09022E-003	7	...........	-327.66
	507	0.1016	7.99123E-002	2.82560E-005	0.00000E+000	8.00000E-002	1.21522E-003	7	...........	-327.66
	508	0.1018	9.00123E-002	2.84218E-005	0.00000E+000	9.00000E-002	1.06522E-003	7	...........	-327.66
	509	0.102	9.99623E-002	2.85808E-005	0.00000E+000	1.00000E-001	1.16522E-003	7	...........	-327.66
	510	0.1022	1.10062E-001	2.87276E-005	0.00000E+000	1.10000E-001	1.26522E-003	7	...........	-327.66
	511	0.1024	1.19987E-001	2.88693E-005	0.00000E+000	1.20000E-001	1.14022E-003	7	...........	-327.66
	512	0.1026	1.30150E-001	2.89946E-005	0.00000E+000	1.30000E-001	1.01522E-003	7	...........	-327.66
	513	0.1028	1.40087E-001	2.91114E-005	0.00000E+000	1.40000E-001	1.09022E-003	7	...........	-327.66
	514	0.103	1.50037E-001	2.92196E-005	0.00000E+000	1.50000E-001	1.14022E-003	7	...........	-327.66
	515	0.1032	1.59962E-001	2.93154E-005	0.00000E+000	1.60000E-001	1.14022E-003	7	...........	-327.66
	516	0.1034	1.70050E-001	2.94072E-005	0.00000E+000	1.70000E-001	9.90224E-004	7	...........	-327.66
	517	0.1036	1.80025E-001	2.94899E-005	0.00000E+000	1.80000E-001	1.19022E-003	7	...........	-327.66
	518	0.1038	1.89962E-001	2.95677E-005	0.00000E+000	1.90000E-001	1.19022E-003	7	...........	-327.66
	519	0.104	1.99937E-001	2.96349E-005	0.00000E+000	2.00000E-001	1.04022E-003	7	...........	-327.66
	520	0.1042	2.09912E-001	2.96917E-005	0.00000E+000	2.10000E-001	1.21522E-003	7	...........	-327.66
	521	0.1044	2.19950E-001	2.97427E-005	0.00000E+000	2.20000E-001	1.14022E-003	7	...........	-327.66
	522	0.1046	2.29950E-001	2.97835E-005	0.00000E+000	2.30000E-001	1.21522E-003	7	...........	-327.66
	523	0.1048	2.39950E-001	2.98215E-005	0.00000E+000	2.40000E-001	1.09022E-003	7	...........	-327.66
	524	0.105	2.50100E-001	2.98430E-005	0.00000E+000	2.50000E-001	1.09022E-003	7	...........	-327.66
	525	0.1052	2.59975E-001	2.98582E-005	0.00000E+000	2.60000E-001	1.14022E-003	7	...........	-327.66
	526	0.1054	2.70112E-001	2.98675E-005	0.00000E+000	2.70000E-001	1.09022E-003	7	...........	-327.66
	527	0.1056	2.79912E-001	2.98720E-005	0.00000E+000	2.80000E-001	1.14022E-003	7	...........	-327.66
	528	0.1058	2.89937E-001	2.98705E-005	0.00000E+000	2.90000E-001	9.65224E-004	7	...........	-327.66
	529	0.106	2.99937E-001	2.98610E-005	0.00000E+000	3.00000E-001	1.09022E-003	7	...........	-327.66
	530	0.1062	3.09987E-001	2.98475E-005	0.00000E+000	3.10000E-001	1.09022E-003	7	...........	-327.66
	531	0.1064	3.19937E-001	2.98267E-005	0.00000E+000	3.20000E-001	1.19022E-003	7	...........	-327.66
	532	0.1066	3.30012E-001	2.98065E-005	0.00000E+000	3.30000E-001	1.14022E-003	7	...........	-327.66
	533	0.1068	3.39937E-001	2.97810E-005	0.00000E+000	3.40000E-001	1.01522E-003	7	...........	-327.66
	534	0.107	3.49925E-001	2.97507E-005	0.00000E+000	3.50000E-001	1.21522E-003	7	...........	-327.66
	535	0.1072	3.59937E-001	2.97202E-005	0.00000E+000	3.60000E-001	1.11522E-003	7	...........	-327.66
	536	0.1074	3.69912E-001	2.96859E-005	0.00000E+000	3.70000E-001	1.29022E-003	7	...........	-327.66
	537	0.1076	3.79950E-001	2.96569E-005	0.00000E+000	3.80000E-001	1.09022E-003	7	...........	-327.66
	538	0.1078	3.89937E-001	2.96154E-005	0.00000E+000	3.90000E-001	1.09022E-003	7	...........	-327.66
	539	0.108	3.99937E-001	2.95784E-005	0.00000E+000	4.00000E-001	1.21522E-003	7	...........	-327.66
	540	0.1082	4.09962E-001	2.95394E-005	0.00000E+000	4.10000E-001	1.19022E-003	7	...........	-327.66
	541	0.1084	4.20000E-001	2.94989E-005	0.00000E+000	4.20000E-001	1.11522E-003	7	...........	-327.66
	542	0.1086	4.29937E-001	2.94582E-005	0.00000E+000	4.30000E-001	1.06522E-003	7	...........	-327.66
	543	0.1088	4.39912E-001	2.94192E-005	0.00000E+000	4.40000E-001	1.09022E-003	7	...........	-327.66
	544	0.109	4.50212E-001	2.93814E-005	0.00000E+000	4.50000E-001	1.21522E-003	7	...........	-327.66
	545	0.1092	4.59937E-001	2.93417E-005	0.00000E+000	4.60000E-001	1.04022E-003	7	...........	-327.66
	546	0.1094	4.69925E-001	2.93056E-005	0.00000E+000	4.70000E-001	1.14022E-003	7	...........	-327.66
	547	0.1096	4.79912E-001	2.92679E-005	0.00000E+000	4.80000E-001	9.65224E-004	7	...........	-327.66
	548	0.1098	4.89962E-001	2.92336E-005	0.00000E+000	4.90000E-001	1.04022E-003	7	...........	-327.66
	549	0.11	4.99987E-001	2.92026E-005	0.00000E+000	5.00000E-001	9.40224E-004	7	...........	-327.66
	550	0.1102	5.09962E-001	2.91721E-005	0.00000E+000	5.10000E-001	1.14022E-003	7	...........	-327.66
	551	0.1104	5.20000E-001	2.91476E-005	0.00000E+000	5.20000E-001	1.09022E-003	7	...........	-327.66
	552	0.1106	5.29900E-001	2.91221E-005	0.00000E+000	5.30000E-001	1.01522E-003	7	...........	-327.66
	553	0.1108	5.39987E-001	2.91019E-005	0.00000E+000	5.40000E-001	1.19022E-003	7	...........	-327.66
	554	0.111	5.49937E-001	2.90814E-005	0.00000E+000	5.50000E-001	1.06522E-003	7	...........	-327.66
	555	0.1112	5.59937E-001	2.90666E-005	0.00000E+000	5.60000E-001	9.15224E-004	7	...........	-327.66
	556	0.1114	5.69900E-001	2.90566E-005	0.00000E+000	5.70000E-001	1.01522E-003	7	...........	-327.66
	557	0.1116	5.79937E-001	2.90484E-005	0.00000E+000	5.80000E-001	1.09022E-003	7	...........	-327.66
	558	0.1118	5.89962E-001	2.90461E-005	0.00000E+000	5.90000E-001	1.06522E-003	7	...........	-327.66
	559	0.112	5.99937E-001	2.90429E-005	0.00000E+000	6.00000E-001	9.40224E-004	7	...........	-327.66
CURVE3	TABLE
	Pt	T	Vf	Im	Vu	Sig	Ach	IERange	Over	Temp
	#	s	V vs. Ref.	A	V	V	V	#	bits	deg C
	560	0.1122	5.89937E-001	2.65460E-005	0.00000E+000	5.90000E-001	1.09022E-003	7	...........	-327.66
	561	0.1124	5.79950E-001	2.42435E-005	0.00000E+000	5.80000E-001	1.11522E-003	7	...........	-327.66
	562	0.1126	5.70025E-001	2.23442E-005	0.00000E+000	5.70000E-001	1.14022E-003	7	...........	-327.66
	563	0.1128	5.59937E-001	2.07132E-005	0.00000E+000	5.60000E-001	1.21522E-003	7	...........	-327.66
	564	0.113	5.49950E-001	1.92635E-005	0.00000E+000	5.50000E-001	1.01522E-003	7	...........	-327.66
	565	0.1132	5.39937E-001	1.79576E-005	0.00000E+000	5.40000E-001	1.21522E-003	7	...........	-327.66
	566	0.1134	5.30187E-001	1.67607E-005	0.00000E+000	5.30000E-001	1.29022E-003	7	...........	-327.66
	567	0.1136	5.19937E-001	1.56458E-005	0.00000E+000	5.20000E-001	1.14022E-003	7	...........	-327.66
	568	0.1138	5.09937E-001	1.46046E-005	0.00000E+000	5.10000E-001	1.11522E-003	7	...........	-327.66
	569	0.114	4.99962E-001	1.36230E-005	0.00000E+000	5.00000E-001	9.90224E-004	7	...........	-327.66
	570	0.1142	4.89962E-001	1.26916E-005	0.00000E+000	4.90000E-001	1.14022E-003	7	...........	-327.66
	571	0.1144	4.79875E-001	1.18015E-005	0.00000E+000	4.80000E-001	1.01522E-003	7	...........	-327.66
	572	0.1146	4.69962E-001	1.09584E-005	0.00000E+000	4.70000E-001	1.04022E-003	7	...........	-327.66
	573	0.1148	4.59937E-001	1.01400E-005	0.00000E+000	4.60000E-001	1.11522E-003	7	...........	-327.66
	574	0.115	4.49862E-001	9.36093E-006	0.00000E+000	4.50000E-001	1.04022E-003	7	...........	-327.66
	575	0.1152	4.39912E-001	8.60583E-006	0.00000E+000	4.40000E-001	1.21522E-003	7	...........	-327.66
	576	0.1154	4.29962E-001	7.87373E-006	0.00000E+000	4.30000E-001	1.09022E-003	7	...........	-327.66
	577	0.1156	4.20025E-001	7.16663E-006	0.00000E+000	4.20000E-001	1.19022E-003	7	...........	-327.66
	578	0.1158	4.09962E-001	6.48179E-006	0.00000E+000	4.10000E-001	1.14022E-003	7	...........	-327.66
	579	0.116	3.99950E-001	5.81795E-006	0.00000E+000	4.00000E-001	9.40224E-004	7	...........	-327.66
	580	0.1162	3.90025E-001	5.16811E-006	0.00000E+000	3.90000E-001	1.09022E-003	7	...........	-327.66
	581	0.1164	3.80012E-001	4.53752E-006	0.00000E+000	3.80000E-001	9.65224E-004	7	...........	-327.66
	582	0.1166	3.69975E-001	3.91894E-006	0.00000E+000	3.70000E-001	1.09022E-003	7	...........	-327.66
	583	0.1168	3.59962E-001	3.31586E-006	0.00000E+000	3.60000E-001	1.06522E-003	7	...........	-327.66
	584	0.117	3.50112E-001	2.72853E-006	0.00000E+000	3.50000E-001	1.11522E-003	7	...........	-327.66
	585	0.1172	3.40075E-001	2.15620E-006	0.00000E+000	3.40000E-001	1.14022E-003	7	...........	-327.66
	586	0.1174	3.30012E-001	1.59412E-006	0.00000E+000	3.30000E-001	1.11522E-003	7	...........	-327.66
	587	0.1176	3.19987E-001	1.04230E-006	0.00000E+000	3.20000E-001	1.04022E-003	7	...........	-327.66
	588	0.1178	3.10037E-001	5.04223E-007	0.00000E+000	3.10000E-001	1.09022E-003	7	...........	-327.66
	589	0.118	3.00025E-001	-2.83500E-008	0.00000E+000	3.00000E-001	1.11522E-003	7	...........	-327.66
	590	0.1182	2.90087E-001	-5.45170E-007	0.00000E+000	2.90000E-001	9.15224E-004	7	...........	-327.66
	591	0.1184	2.80037E-001	-1.05599E-006	0.00000E+000	2.80000E-001	1.04022E-003	7	...........	-327.66
	592	0.1186	2.70200E-001	-1.55506E-006	0.00000E+000	2.70000E-001	1.19022E-003	7	...........	-327.66
	593	0.1188	2.60000E-001	-2.04863E-006	0.00000E+000	2.60000E-001	1.09022E-003	7	...........	-327.66
	594	0.119	2.50250E-001	-2.53044E-006	0.00000E+000	2.50000E-001	9.65224E-004	7	...........	-327.66
	595	0.1192	2.39987E-001	-3.01001E-006	0.00000E+000	2.40000E-001	9.90224E-004	7	...........	-327.66
	596	0.1194	2.30062E-001	-3.47807E-006	0.00000E+000	2.30000E-001	1.14022E-003	7	...........	-327.66
	597	0.1196	2.20137E-001	-3.94038E-006	0.00000E+000	2.20000E-001	1.16522E-003	7	...........	-327.66
	598	0.1198	2.10150E-001	-4.40320E-006	0.00000E+000	2.10000E-001	1.09022E-003	7	...........	-327.66
	599	0.12	2.00100E-001	-4.85201E-006	0.00000E+000	2.00000E-001	1.01522E-003	7	...........	-327.66
	600	0.1202	1.90112E-001	-5.29257E-006	0.00000E+000	1.90000E-001	1.01522E-003	7	...........	-327.66
	601	0.1204	1.80087E-001	-5.72438E-006	0.00000E+000	1.80000E-001	1.06522E-003	7	...........	-327.66
	602	0.1206	1.70200E-001	-6.16144E-006	0.00000E+000	1.70000E-001	9.65224E-004	7	...........	-327.66
	603	0.1208	1.60212E-001	-6.59224E-006	0.00000E+000	1.60000E-001	1.06522E-003	7	...........	-327.66
	604	0.121	1.50025E-001	-7.00930E-006	0.00000E+000	1.50000E-001	1.09022E-003	7	...........	-327.66
	605	0.1212	1.40187E-001	-7.43011E-006	0.00000E+000	1.40000E-001	9.65224E-004	7	...........	-327.66
	606	0.1214	1.30087E-001	-7.84066E-006	0.00000E+000	1.30000E-001	1.14022E-003	7	...........	-327.66
	607	0.1216	1.20112E-001	-8.24897E-006	0.00000E+000	1.20000E-001	9.15224E-004	7	...........	-327.66
	608	0.1218	1.10237E-001	-8.65553E-006	0.00000E+000	1.10000E-001	1.14022E-003	7	...........	-327.66
	609	0.122	1.00150E-001	-9.05408E-006	0.00000E+000	1.00000E-001	1.11522E-003	7	...........	-327.66
	610	0.1222	9.03248E-002	-9.44913E-006	0.00000E+000	9.00000E-002	1.06522E-003	7	...........	-327.66
	611	0.1224	8.02373E-002	-9.83944E-006	0.00000E+000	8.00000E-002	1.16522E-003	7	...........	-327.66
	612	0.1226	7.01623E-002	-1.02282E-005	0.00000E+000	7.00000E-002	1.14022E-003	7	...........	-327.66
	613	0.1228	6.01373E-002	-1.06098E-005	0.00000E+000	6.00000E-002	1.11522E-003	7	...........	-327.66
	614	0.123	5.02873E-002	-1.09908E-005	0.00000E+000	5.00000E-002	1.01522E-003	7	...........	-327.66
	615	0.1232	4.00623E-002	-1.13696E-005	0.00000E+000	4.00000E-002	1.09022E-003	7	...........	-327.66
	616	0.1234	3.01373E-002	-1.17407E-005	0.00000E+000	3.00000E-002	1.04022E-003	7	...........	-327.66
	617	0.1236	2.01873E-002	-1.21112E-005	0.00000E+000	2.00000E-002	9.65224E-004	7	...........	-327.66
	618	0.1238	1.01248E-002	-1.24778E-005	0.00000E+000	9.99999E-003	1.14022E-003	7	...........	-327.66
	619	0.124	1.12312E-004	-1.28428E-005	0.00000E+000	-1.49012E-008	1.11522E-003	7	...........	-327.66
	620	0.1242	-9.72519E-003	-1.32061E-005	0.00000E+000	-1.00000E-002	1.16522E-003	7	...........	-327.66
	621	0.1244	-1.99127E-002	-1.35607E-005	0.00000E+000	-2.00000E-002	1.04022E-003	7	...........	-327.66
	622	0.1246	-2.97002E-002	-1.39127E-005	0.00000E+000	-3.00000E-002	1.14022E-003	7	...........	-327.66
	623	0.1248	-3.99252E-002	-1.42618E-005	0.00000E+000	-4.00000E-002	1.06522E-003	7	...........	-327.66
	624	0.125	-4.98502E-002	-1.46101E-005	0.00000E+000	-5.00000E-002	1.09022E-003	7	...........	-327.66
	625	0.1252	-5.98002E-002	-1.49554E-005	0.00000E+000	-6.00000E-002	1.09022E-003	7	...........	-327.66
	626	0.1254	-6.97252E-002	-1.52924E-005	0.00000E+000	-7.00000E-002	1.01522E-003	7	...........	-327.66
	627	0.1256	-7.99127E-002	-1.56320E-005	0.00000E+000	-8.00000E-002	1.16522E-003	7	...........	-327.66
	628	0.1258	-8.98252E-002	-1.59668E-005	0.00000E+000	-9.00000E-002	1.14022E-003	7	...........	-327.66
	629	0.126	-9.99377E-002	-1.62991E-005	0.00000E+000	-1.00000E-001	1.09022E-003	7	...........	-327.66
	630	0.1262	-1.09650E-001	-1.66289E-005	0.00000E+000	-1.10000E-001	1.06522E-003	7	...........	-327.66
	631	0.1264	-1.19788E-001	-1.69559E-005	0.00000E+000	-1.20000E-001	1.06522E-003	7	...........	-327.66
	632	0.1266	-1.29750E-001	-1.72755E-005	0.00000E+000	-1.30000E-001	1.16522E-003	7	...........	-327.66
	633	0.1268	-1.39713E-001	-1.75980E-005	0.00000E+000	-1.40000E-001	1.16522E-003	7	...........	-327.66
	634	0.127	-1.49738E-001	-1.79160E-005	0.00000E+000	-1.50000E-001	1.11522E-003	7	...........	-327.66
	635	0.1272	-1.59838E-001	-1.82256E-005	0.00000E+000	-1.60000E-001	1.06522E-003	7	...........	-327.66
	636	0.1274	-1.69750E-001	-1.85414E-005	0.00000E+000	-1.70000E-001	1.09022E-003	7	...........	-327.66
	637	0.1276	-1.79875E-001	-1.88502E-005	0.00000E+000	-1.80000E-001	1.09022E-003	7	...........	-327.66
	638	0.1278	-1.89750E-001	-1.91630E-005	0.00000E+000	-1.90000E-001	1.14022E-003	7	...........	-327.66
	639	0.128	-1.99863E-001	-1.94728E-005	0.00000E+000	-2.00000E-001	1.14022E-003	7	...........	-327.66
	640	0.1282	-2.09763E-001	-1.97798E-005	0.00000E+000	-2.10000E-001	9.90224E-004	7	...........	-327.66
	641	0.1284	-2.19763E-001	-2.00851E-005	0.00000E+000	-2.20000E-001	1.11522E-003	7	...........	-327.66
	642	0.1286	-2.29838E-001	-2.03914E-005	0.00000E+000	-2.30000E-001	9.40224E-004	7	...........	-327.66
	643	0.1288	-2.39763E-001	-2.07034E-005	0.00000E+000	-2.40000E-001	1.06522E-003	7	...........	-327.66
	644	0.129	-2.49763E-001	-2.10085E-005	0.00000E+000	-2.50000E-001	9.90224E-004	7	...........	-327.66
	645	0.1292	-2.59838E-001	-2.13133E-005	0.00000E+000	-2.60000E-001	1.11522E-003	7	...........	-327.66
	646	0.1294	-2.69700E-001	-2.16178E-005	0.00000E+000	-2.70000E-001	1.01522E-003	7	...........	-327.66
	647	0.1296	-2.79913E-001	-2.19226E-005	0.00000E+000	-2.80000E-001	1.09022E-003	7	...........	-327.66
	648	0.1298	-2.89713E-001	-2.22296E-005	0.00000E+000	-2.90000E-001	1.01522E-003	7	...........	-327.66
	649	0.13	-2.99825E-001	-2.25304E-005	0.00000E+000	-3.00000E-001	1.11522E-003	7	...........	-327.66
	650	0.1302	-3.09713E-001	-2.28325E-005	0.00000E+000	-3.10000E-001	1.01522E-003	7	...........	-327.66
	651	0.1304	-3.19825E-001	-2.31385E-005	0.00000E+000	-3.20000E-001	9.65224E-004	7	...........	-327.66
	652	0.1306	-3.29863E-001	-2.34408E-005	0.00000E+000	-3.30000E-001	1.16522E-003	7	...........	-327.66
	653	0.1308	-3.39763E-001	-2.37441E-005	0.00000E+000	-3.40000E-001	9.15224E-004	7	...........	-327.66
	654	0.131	-3.49650E-001	-2.40389E-005	0.00000E+000	-3.50000E-001	1.09022E-003	7	...........	-327.66
	655	0.1312	-3.59713E-001	-2.43439E-005	0.00000E+000	-3.60000E-001	1.11522E-003	7	...........	-327.66
	656	0.1314	-3.69700E-001	-2.46397E-005	0.00000E+000	-3.70000E-001	9.90224E-004	7	...........	-327.66
	657	0.1316	-3.79813E-001	-2.49427E-005	0.00000E+000	-3.80000E-001	1.14022E-003	7	...........	-327.66
	658	0.1318	-3.89675E-001	-2.52413E-005	0.00000E+000	-3.90000E-001	1.21522E-003	7	...........	-327.66
	659	0.132	-3.99713E-001	-2.55343E-005	0.00000E+000	-4.00000E-001	1.14022E-003	7	...........	-327.66
	660	0.1322	-4.09700E-001	-2.58334E-005	0.00000E+000	-4.10000E-001	1.21522E-003	7	...........	-327.66
	661	0.1324	-4.19750E-001	-2.61267E-005	0.00000E+000	-4.20000E-001	1.24022E-003	7	...........	-327.66
	662	0.1326	-4.29738E-001	-2.64177E-005	0.00000E+000	-4.30000E-001	9.65224E-004	7	...........	-327.66
	663	0.1328	-4.39788E-001	-2.67100E-005	0.00000E+000	-4.40000E-001	1.01522E-003	7	...........	-327.66
	664	0.133	-4.49650E-001	-2.69968E-005	0.00000E+000	-4.50000E-001	1.21522E-003	7	...........	-327.66
	665	0.1332	-4.59725E-001	-2.72878E-005	0.00000E+000	-4.60000E-001	1.11522E-003	7	...........	-327.66
	666	0.1334	-4.69700E-001	-2.75711E-005	0.00000E+000	-4.70000E-001	1.11522E-003	7	...........	-327.66
	667	0.1336	-4.79763E-001	-2.78576E-005	0.00000E+000	-4.80000E-001	1.11522E-003	7	...........	-327.66
	668	0.1338	-4.89688E-001	-2.81402E-005	0.00000E+000	-4.90000E-001	1.21522E-003	7	...........	-327.66
	669	0.134	-4.99763E-001	-2.84195E-005	0.00000E+000	-5.00000E-001	9.90224E-004	7	...........	-327.66
	670	0.1342	-5.09688E-001	-2.86990E-005	0.00000E+000	-5.10000E-001	1.24022E-003	7	...........	-327.66
	671	0.1344	-5.19650E-001	-2.89718E-005	0.00000E+000	-5.20000E-001	1.11522E-003	7	...........	-327.66
	672	0.1346	-5.29700E-001	-2.92441E-005	0.00000E+000	-5.30000E-001	1.29022E-003	7	...........	-327.66
	673	0.1348	-5.39750E-001	-2.95209E-005	0.00000E+000	-5.40000E-001	1.19022E-003	7	...........	-327.66
	674	0.135	-5.49650E-001	-2.97902E-005	0.00000E+000	-5.50000E-001	9.15224E-004	7	...........	-327.66
	675	0.1352	-5.59775E-001	-3.00549E-005	0.00000E+000	-5.60000E-001	1.06522E-003	7	...........	-327.66
	676	0.1354	-5.69713E-001	-3.03187E-005	0.00000E+000	-5.70000E-001	8.90224E-004	7	...........	-327.66
	677	0.1356	-5.79725E-001	-3.05790E-005	0.00000E+000	-5.80000E-001	1.04022E-003	7	...........	-327.66
	678	0.1358	-5.89650E-001	-3.08323E-005	0.00000E+000	-5.90000E-001	1.04022E-003	7	...........	-327.66
	679	0.136	-5.99625E-001	-3.10883E-005	0.00000E+000	-6.00000E-001	1.11522E-003	7	...........	-327.66
	680	0.1362	-6.09788E-001	-3.13411E-005	0.00000E+000	-6.10000E-001	9.90224E-004	7	...........	-327.66
	681	0.1364	-6.19625E-001	-3.15867E-005	0.00000E+000	-6.20000E-001	1.16522E-003	7	...........	-327.66
	682	0.1366	-6.29650E-001	-3.18269E-005	0.00000E+000	-6.30000E-001	1.14022E-003	7	...........	-327.66
	683	0.1368	-6.39750E-001	-3.20702E-005	0.00000E+000	-6.40000E-001	1.09022E-003	7	...........	-327.66
	684	0.137	-6.49663E-001	-3.23035E-005	0.00000E+000	-6.50000E-001	1.14022E-003	7	...........	-327.66
	685	0.1372	-6.59663E-001	-3.25300E-005	0.00000E+000	-6.60000E-001	1.19022E-003	7	...........	-327.66
	686	0.1374	-6.69663E-001	-3.27586E-005	0.00000E+000	-6.70000E-001	1.09022E-003	7	...........	-327.66
	687	0.1376	-6.79650E-001	-3.29796E-005	0.00000E+000	-6.80000E-001	1.14022E-003	7	...........	-327.66
	688	0.1378	-6.89650E-001	-3.31954E-005	0.00000E+000	-6.90000E-001	1.09022E-003	7	...........	-327.66
	689	0.138	-6.99650E-001	-3.34061E-005	0.00000E+000	-7.00000E-001	1.09022E-003	7	...........	-327.66
	690	0.1382	-7.09588E-001	-3.36109E-005	0.00000E+000	-7.10000E-001	1.11522E-003	7	...........	-327.66
	691	0.1384	-7.19750E-001	-3.38092E-005	0.00000E+000	-7.20000E-001	1.11522E-003	7	...........	-327.66
	692	0.1386	-7.29663E-001	-3.40010E-005	0.00000E+000	-7.30000E-001	1.09022E-003	7	...........	-327.66
	693	0.1388	-7.39663E-001	-3.41873E-005	0.00000E+000	-7.40000E-001	1.09022E-003	7	...........	-327.66
	694	0.139	-7.49663E-001	-3.43685E-005	0.00000E+000	-7.50000E-001	1.09022E-003	7	...........	-327.66
	695	0.1392	-7.59663E-001	-3.45356E-005	0.00000E+000	-7.60000E-001	1.16522E-003	7	...........	-327.66
	696	0.1394	-7.69663E-001	-3.47001E-005	0.00000E+000	-7.70000E-001	1.09022E-003	7	...........	-327.66
	697	0.1396	-7.79550E-001	-3.48541E-005	0.00000E+000	-7.80000E-001	1.19022E-003	7	...........	-327.66
	698	0.1398	-7.89650E-001	-3.50011E-005	0.00000E+000	-7.90000E-001	1.19022E-003	7	...........	-327.66
	699	0.14	-7.99650E-001	-3.51386E-005	0.00000E+000	-8.00000E-001	9.90224E-004	7	...........	-327.66
	700	0.1402	-8.09638E-001	-3.52644E-005	0.00000E+000	-8.10000E-001	1.01522E-003	7	...........	-327.66
	701	0.1404	-8.19700E-001	-3.53764E-005	0.00000E+000	-8.20000E-001	1.14022E-003	7	...........	-327.66
	702	0.1406	-8.29600E-001	-3.54817E-005	0.00000E+000	-8.30000E-001	1.24022E-003	7	...........	-327.66
	703	0.1408	-8.39688E-001	-3.55722E-005	0.00000E+000	-8.40000E-001	1.14022E-003	7	...........	-327.66
	704	0.141	-8.49713E-001	-3.56555E-005	0.00000E+000	-8.50000E-001	1.06522E-003	7	...........	-327.66
	705	0.1412	-8.59575E-001	-3.57195E-005	0.00000E+000	-8.60000E-001	1.24022E-003	7	...........	-327.66
	706	0.1414	-8.69638E-001	-3.57715E-005	0.00000E+000	-8.70000E-001	1.29022E-003	7	...........	-327.66
	707	0.1416	-8.79688E-001	-3.58050E-005	0.00000E+000	-8.80000E-001	1.04022E-003	7	...........	-327.66
	708	0.1418	-8.89688E-001	-3.58245E-005	0.00000E+000	-8.90000E-001	1.01522E-003	7	...........	-327.66
	709	0.142	-8.99688E-001	-3.58220E-005	0.00000E+000	-9.00000E-001	1.14022E-003	7	...........	-327.66
	710	0.1422	-8.89725E-001	-3.36177E-005	0.00000E+000	-8.90000E-001	1.01522E-003	7	...........	-327.66
	711	0.1424	-8.79688E-001	-3.14489E-005	0.00000E+000	-8.80000E-001	1.04022E-003	7	...........	-327.66
	712	0.1426	-8.69825E-001	-2.95719E-005	0.00000E+000	-8.70000E-001	1.21522E-003	7	...........	-327.66
	713	0.1428	-8.59713E-001	-2.78934E-005	0.00000E+000	-8.60000E-001	1.16522E-003	7	...........	-327.66
	714	0.143	-8.49813E-001	-2.63522E-005	0.00000E+000	-8.50000E-001	1.09022E-003	7	...........	-327.66
	715	0.1432	-8.39663E-001	-2.49142E-005	0.00000E+000	-8.40000E-001	1.14022E-003	7	...........	-327.66
	716	0.1434	-8.29575E-001	-2.35521E-005	0.00000E+000	-8.30000E-001	1.01522E-003	7	...........	-327.66
	717	0.1436	-8.19825E-001	-2.22614E-005	0.00000E+000	-8.20000E-001	1.06522E-003	7	...........	-327.66
	718	0.1438	-8.09663E-001	-2.10242E-005	0.00000E+000	-8.10000E-001	1.09022E-003	7	...........	-327.66
	719	0.144	-7.99625E-001	-1.98223E-005	0.00000E+000	-8.00000E-001	1.09022E-003	7	...........	-327.66
	720	0.1442	-7.89725E-001	-1.86714E-005	0.00000E+000	-7.90000E-001	1.09022E-003	7	...........	-327.66
	721	0.1444	-7.79575E-001	-1.75500E-005	0.00000E+000	-7.80000E-001	1.11522E-003	7	...........	-327.66
	722	0.1446	-7.69763E-001	-1.64606E-005	0.00000E+000	-7.70000E-001	1.11522E-003	7	...........	-327.66
	723	0.1448	-7.59738E-001	-1.53924E-005	0.00000E+000	-7.60000E-001	1.09022E-003	7	...........	-327.66
	724	0.145	-7.49750E-001	-1.43598E-005	0.00000E+000	-7.50000E-001	1.04022E-003	7	...........	-327.66
	725	0.1452	-7.39925E-001	-1.33492E-005	0.00000E+000	-7.40000E-001	1.09022E-003	7	...........	-327.66
	726	0.1454	-7.29725E-001	-1.23593E-005	0.00000E+000	-7.30000E-001	1.11522E-003	7	...........	-327.66
	727	0.1456	-7.19763E-001	-1.13864E-005	0.00000E+000	-7.20000E-001	1.06522E-003	7	...........	-327.66
	728	0.1458	-7.09763E-001	-1.04385E-005	0.00000E+000	-7.10000E-001	1.06522E-003	7	...........	-327.66
	729	0.146	-6.99813E-001	-9.50864E-006	0.00000E+000	-7.00000E-001	1.11522E-003	7	...........	-327.66
	730	0.1462	-6.89688E-001	-8.59927E-006	0.00000E+000	-6.90000E-001	1.19022E-003	7	...........	-327.66
	731	0.1464	-6.79775E-001	-7.70990E-006	0.00000E+000	-6.80000E-001	1.24022E-003	7	...........	-327.66
	732	0.1466	-6.69788E-001	-6.83603E-006	0.00000E+000	-6.70000E-001	1.11522E-003	7	...........	-327.66
	733	0.1468	-6.59888E-001	-5.98541E-006	0.00000E+000	-6.60000E-001	1.04022E-003	7	...........	-327.66
	734	0.147	-6.49763E-001	-5.14630E-006	0.00000E+000	-6.50000E-001	1.09022E-003	7	...........	-327.66
	735	0.1472	-6.39938E-001	-4.32319E-006	0.00000E+000	-6.40000E-001	1.09022E-003	7	...........	-327.66
	736	0.1474	-6.29638E-001	-3.51683E-006	0.00000E+000	-6.30000E-001	9.40224E-004	7	...........	-327.66
	737	0.1476	-6.19888E-001	-2.72747E-006	0.00000E+000	-6.20000E-001	1.11522E-003	7	...........	-327.66
	738	0.1478	-6.09913E-001	-1.95511E-006	0.00000E+000	-6.10000E-001	1.11522E-003	7	...........	-327.66
	739	0.148	-5.99850E-001	-1.19551E-006	0.00000E+000	-6.00000E-001	1.01522E-003	7	...........	-327.66
	740	0.1482	-5.89838E-001	-4.50157E-007	0.00000E+000	-5.90000E-001	1.14022E-003	7	...........	-327.66
	741	0.1484	-5.79863E-001	2.85943E-007	0.00000E+000	-5.80000E-001	1.14022E-003	7	...........	-327.66
	742	0.1486	-5.69938E-001	1.00279E-006	0.00000E+000	-5.70000E-001	1.09022E-003	7	...........	-327.66
	743	0.1488	-5.59988E-001	1.70889E-006	0.00000E+000	-5.60000E-001	9.15224E-004	7	...........	-327.66
	744	0.149	-5.49700E-001	2.40623E-006	0.00000E+000	-5.50000E-001	1.11522E-003	7	...........	-327.66
	745	0.1492	-5.39888E-001	3.09208E-006	0.00000E+000	-5.40000E-001	1.11522E-003	7	...........	-327.66
	746	0.1494	-5.29913E-001	3.76792E-006	0.00000E+000	-5.30000E-001	1.01522E-003	7	...........	-327.66
	747	0.1496	-5.19938E-001	4.43551E-006	0.00000E+000	-5.20000E-001	1.06522E-003	7	...........	-327.66
	748	0.1498	-5.09775E-001	5.09510E-006	0.00000E+000	-5.10000E-001	1.14022E-003	7	...........	-327.66
	749	0.15	-4.99825E-001	5.73669E-006	0.00000E+000	-5.00000E-001	9.65224E-004	7	...........	-327.66
	750	0.1502	-4.89888E-001	6.37677E-006	0.00000E+000	-4.90000E-001	1.11522E-003	7	...........	-327.66
	751	0.1504	-4.79900E-001	7.00936E-006	0.00000E+000	-4.80000E-001	1.01522E-003	7	...........	-327.66
	752	0.1506	-4.69775E-001	7.63294E-006	0.00000E+000	-4.70000E-001	1.09022E-003	7	...........	-327.66
	753	0.1508	-4.59925E-001	8.24928E-006	0.00000E+000	-4.60000E-001	1.11522E-003	7	...........	-327.66
	754	0.151	-4.49788E-001	8.85586E-006	0.00000E+000	-4.50000E-001	1.01522E-003	7	...........	-327.66
	755	0.1512	-4.39913E-001	9.45769E-006	0.00000E+000	-4.40000E-001	1.09022E-003	7	...........	-327.66
	756	0.1514	-4.29938E-001	1.00495E-005	0.00000E+000	-4.30000E-001	1.06522E-003	7	...........	-327.66
	757	0.1516	-4.19925E-001	1.06364E-005	0.00000E+000	-4.20000E-001	1.09022E-003	7	...........	-327.66
	758	0.1518	-4.09888E-001	1.12147E-005	0.00000E+000	-4.10000E-001	1.01522E-003	7	...........	-327.66
	759	0.152	-3.99925E-001	1.17903E-005	0.00000E+000	-4.00000E-001	9.65224E-004	7	...........	-327.66
	760	0.1522	-3.89875E-001	1.23596E-005	0.00000E+000	-3.90000E-001	1.01522E-003	7	...........	-327.66
	761	0.1524	-3.79988E-001	1.29119E-005	0.00000E+000	-3.80000E-001	1.14022E-003	7	...........	-327.66
	762	0.1526	-3.69838E-001	1.34620E-005	0.00000E+000	-3.70000E-001	1.06522E-003	7	...........	-327.66
	763	0.1528	-3.59938E-001	1.40018E-005	0.00000E+000	-3.60000E-001	1.06522E-003	7	...........	-327.66
	764	0.153	-3.50000E-001	1.45376E-005	0.00000E+000	-3.50000E-001	1.11522E-003	7	...........	-327.66
	765	0.1532	-3.39938E-001	1.50632E-005	0.00000E+000	-3.40000E-001	1.11522E-003	7	...........	-327.66
	766	0.1534	-3.30038E-001	1.55820E-005	0.00000E+000	-3.30000E-001	1.09022E-003	7	...........	-327.66
	767	0.1536	-3.20025E-001	1.60936E-005	0.00000E+000	-3.20000E-001	1.09022E-003	7	...........	-327.66
	768	0.1538	-3.09900E-001	1.65887E-005	0.00000E+000	-3.10000E-001	1.29022E-003	7	...........	-327.66
	769	0.154	-3.00025E-001	1.70765E-005	0.00000E+000	-3.00000E-001	1.14022E-003	7	...........	-327.66
	770	0.1542	-2.89888E-001	1.75595E-005	0.00000E+000	-2.90000E-001	1.14022E-003	7	...........	-327.66
	771	0.1544	-2.80038E-001	1.80306E-005	0.00000E+000	-2.80000E-001	1.04022E-003	7	...........	-327.66
	772	0.1546	-2.69938E-001	1.84902E-005	0.00000E+000	-2.70000E-001	9.90224E-004	7	...........	-327.66
	773	0.1548	-2.60063E-001	1.89405E-005	0.00000E+000	-2.60000E-001	1.06522E-003	7	...........	-327.66
	774	0.155	-2.49950E-001	1.93820E-005	0.00000E+000	-2.50000E-001	1.29022E-003	7	...........	-327.66
	775	0.1552	-2.40050E-001	1.98149E-005	0.00000E+000	-2.40000E-001	1.06522E-003	7	...........	-327.66
	776	0.1554	-2.29963E-001	2.02334E-005	0.00000E+000	-2.30000E-001	1.21522E-003	7	...........	-327.66
	777	0.1556	-2.19913E-001	2.06447E-005	0.00000E+000	-2.20000E-001	1.16522E-003	7	...........	-327.66
	778	0.1558	-2.10038E-001	2.10445E-005	0.00000E+000	-2.10000E-001	9.65224E-004	7	...........	-327.66
	779	0.156	-2.00063E-001	2.14323E-005	0.00000E+000	-2.00000E-001	1.14022E-003	7	...........	-327.66
	780	0.1562	-1.89813E-001	2.18146E-005	0.00000E+000	-1.90000E-001	1.29022E-003	7	...........	-327.66
	781	0.1564	-1.80013E-001	2.21792E-005	0.00000E+000	-1.80000E-001	1.21522E-003	7	...........	-327.66
	782	0.1566	-1.70038E-001	2.25380E-005	0.00000E+000	-1.70000E-001	1.06522E-003	7	...........	-327.66
	783	0.1568	-1.60063E-001	2.28840E-005	0.00000E+000	-1.60000E-001	1.14022E-003	7	...........	-327.66
	784	0.157	-1.50025E-001	2.32206E-005	0.00000E+000	-1.50000E-001	1.01522E-003	7	...........	-327.66
	785	0.1572	-1.39988E-001	2.35479E-005	0.00000E+000	-1.40000E-001	1.11522E-003	7	...........	-327.66
	786	0.1574	-1.29988E-001	2.38659E-005	0.00000E+000	-1.30000E-001	1.11522E-003	7	...........	-327.66
	787	0.1576	-1.19938E-001	2.41719E-005	0.00000E+000	-1.20000E-001	1.11522E-003	7	...........	-327.66
	788	0.1578	-1.09975E-001	2.44707E-005	0.00000E+000	-1.10000E-001	1.11522E-003	7	...........	-327.66
	789	0.158	-1.00050E-001	2.47608E-005	0.00000E+000	-1.00000E-001	1.06522E-003	7	...........	-327.66
	790	0.1582	-8.99877E-002	2.50411E-005	0.00000E+000	-9.00000E-002	1.06522E-003	7	...........	-327.66
	791	0.1584	-8.00877E-002	2.53161E-005	0.00000E+000	-8.00000E-002	9.90224E-004	7	...........	-327.66
	792	0.1586	-6.99877E-002	2.55799E-005	0.00000E+000	-7.00000E-002	1.16522E-003	7	...........	-327.66
	793	0.1588	-6.00127E-002	2.58387E-005	0.00000E+000	-6.00000E-002	1.24022E-003	7	...........	-327.66
	794	0.159	-5.01002E-002	2.60897E-005	0.00000E+000	-5.00000E-002	1.11522E-003	7	...........	-327.66
	795	0.1592	-3.99752E-002	2.63367E-005	0.00000E+000	-4.00000E-002	8.90224E-004	7	...........	-327.66
	796	0.1594	-3.00127E-002	2.65773E-005	0.00000E+000	-3.00000E-002	1.01522E-003	7	...........	-327.66
	797	0.1596	-2.00377E-002	2.68081E-005	0.00000E+000	-2.00000E-002	1.06522E-003	7	...........	-327.66
	798	0.1598	-9.92519E-003	2.70366E-005	0.00000E+000	-1.00000E-002	9.65224E-004	7	...........	-327.66
	799	0.16	-1.12687E-004	2.72694E-005	0.00000E+000	-1.49012E-008	9.40224E-004	7	...........	-327.66
	800	0.1602	1.00248E-002	2.74926E-005	0.00000E+000	9.99999E-003	1.09022E-003	7	...........	-327.66
	801	0.1604	2.00623E-002	2.77169E-005	0.00000E+000	2.00000E-002	9.15224E-004	7	...........	-327.66
	802	0.1606	2.99623E-002	2.79342E-005	0.00000E+000	3.00000E-002	9.65224E-004	7	...........	-327.66
	803	0.1608	3.99748E-002	2.81427E-005	0.00000E+000	4.00000E-002	1.16522E-003	7	...........	-327.66
	804	0.161	4.99998E-002	2.83475E-005	0.00000E+000	5.00000E-002	1.24022E-003	7	...........	-327.66
	805	0.1612	5.99873E-002	2.85448E-005	0.00000E+000	6.00000E-002	1.11522E-003	7	...........	-327.66
	806	0.1614	7.00123E-002	2.87323E-005	0.00000E+000	7.00000E-002	1.04022E-003	7	...........	-327.66
	807	0.1616	7.99373E-002	2.89083E-005	0.00000E+000	8.00000E-002	1.21522E-003	7	...........	-327.66
	808	0.1618	9.00873E-002	2.90726E-005	0.00000E+000	9.00000E-002	1.01522E-003	7	...........	-327.66
	809	0.162	9.99373E-002	2.92266E-005	0.00000E+000	1.00000E-001	1.09022E-003	7	...........	-327.66
	810	0.1622	1.09987E-001	2.93717E-005	0.00000E+000	1.10000E-001	1.11522E-003	7	...........	-327.66
	811	0.1624	1.19912E-001	2.95067E-005	0.00000E+000	1.20000E-001	1.14022E-003	7	...........	-327.66
	812	0.1626	1.30000E-001	2.96312E-005	0.00000E+000	1.30000E-001	1.19022E-003	7	...........	-327.66
	813	0.1628	1.40062E-001	2.97450E-005	0.00000E+000	1.40000E-001	1.01522E-003	7	...........	-327.66
	814	0.163	1.50012E-001	2.98467E-005	0.00000E+000	1.50000E-001	1.09022E-003	7	...........	-327.66
	815	0.1632	1.59962E-001	2.99407E-005	0.00000E+000	1.60000E-001	1.09022E-003	7	...........	-327.66
	816	0.1634	1.70075E-001	3.00242E-005	0.00000E+000	1.70000E-001	1.14022E-003	7	...........	-327.66
	817	0.1636	1.79987E-001	3.01015E-005	0.00000E+000	1.80000E-001	1.11522E-003	7	...........	-327.66
	818	0.1638	1.90000E-001	3.01673E-005	0.00000E+000	1.90000E-001	1.11522E-003	7	...........	-327.66
	819	0.164	1.99962E-001	3.02270E-005	0.00000E+000	2.00000E-001	1.11522E-003	7	...........	-327.66
	820	0.1642	2.09987E-001	3.02760E-005	0.00000E+000	2.10000E-001	1.01522E-003	7	...........	-327.66
	821	0.1644	2.19950E-001	3.03183E-005	0.00000E+000	2.20000E-001	9.65224E-004	7	...........	-327.66
	822	0.1646	2.29962E-001	3.03468E-005	0.00000E+000	2.30000E-001	1.04022E-003	7	...........	-327.66
	823	0.1648	2.39925E-001	3.03725E-005	0.00000E+000	2.40000E-001	1.09022E-003	7	...........	-327.66
	824	0.165	2.50087E-001	3.03868E-005	0.00000E+000	2.50000E-001	1.16522E-003	7	...........	-327.66
	825	0.1652	2.59975E-001	3.03928E-005	0.00000E+000	2.60000E-001	1.21522E-003	7	...........	-327.66
	826	0.1654	2.70100E-001	3.03995E-005	0.00000E+000	2.70000E-001	1.16522E-003	7	...........	-327.66
	827	0.1656	2.79862E-001	3.03913E-005	0.00000E+000	2.80000E-001	1.14022E-003	7	...........	-327.66
	828	0.1658	2.89950E-001	3.03860E-005	0.00000E+000	2.90000E-001	1.11522E-003	7	...........	-327.66
	829	0.166	2.99937E-001	3.03708E-005	0.00000E+000	3.00000E-001	1.04022E-003	7	...........	-327.66
	830	0.1662	3.09962E-001	3.03565E-005	0.00000E+000	3.10000E-001	1.06522E-003	7	...........	-327.66
	831	0.1664	3.19987E-001	3.03365E-005	0.00000E+000	3.20000E-001	1.11522E-003	7	...........	-327.66
	832	0.1666	3.29912E-001	3.03055E-005	0.00000E+000	3.30000E-001	1.01522E-003	7	...........	-327.66
	833	0.1668	3.39937E-001	3.02795E-005	0.00000E+000	3.40000E-001	1.11522E-003	7	...........	-327.66
	834	0.167	3.49937E-001	3.02520E-005	0.00000E+000	3.50000E-001	1.11522E-003	7	...........	-327.66
	835	0.1672	3.59937E-001	3.02213E-005	0.00000E+000	3.60000E-001	1.09022E-003	7	...........	-327.66
	836	0.1674	3.69950E-001	3.01900E-005	0.00000E+000	3.70000E-001	1.11522E-003	7	...........	-327.66
	837	0.1676	3.79937E-001	3.01508E-005	0.00000E+000	3.80000E-001	1.14022E-003	7	...........	-327.66
	838	0.1678	3.89887E-001	3.01078E-005	0.00000E+000	3.90000E-001	9.40224E-004	7	...........	-327.66
	839	0.168	3.99937E-001	3.00730E-005	0.00000E+000	4.00000E-001	1.11522E-003	7	...........	-327.66
	840	0.1682	4.10050E-001	3.00375E-005	0.00000E+000	4.10000E-001	1.21522E-003	7	...........	-327.66
	841	0.1684	4.19987E-001	2.99980E-005	0.00000E+000	4.20000E-001	1.11522E-003	7	...........	-327.66
	842	0.1686	4.29950E-001	2.99610E-005	0.00000E+000	4.30000E-001	1.09022E-003	7	...........	-327.66
	843	0.1688	4.39912E-001	2.99222E-005	0.00000E+000	4.40000E-001	1.11522E-003	7	...........	-327.66
	844	0.169	4.50000E-001	2.98840E-005	0.00000E+000	4.50000E-001	1.19022E-003	7	...........	-327.66
	845	0.1692	4.59937E-001	2.98452E-005	0.00000E+000	4.60000E-001	1.11522E-003	7	...........	-327.66
	846	0.1694	4.69887E-001	2.98092E-005	0.00000E+000	4.70000E-001	1.16522E-003	7	...........	-327.66
	847	0.1696	4.79937E-001	2.97742E-005	0.00000E+000	4.80000E-001	9.90224E-004	7	...........	-327.66
	848	0.1698	4.89937E-001	2.97390E-005	0.00000E+000	4.90000E-001	1.11522E-003	7	...........	-327.66
	849	0.17	5.00000E-001	2.97120E-005	0.00000E+000	5.00000E-001	8.90224E-004	7	...........	-327.66
	850	0.1702	5.09937E-001	2.96834E-005	0.00000E+000	5.10000E-001	1.09022E-003	7	...........	-327.66
	851	0.1704	5.19975E-001	2.96584E-005	0.00000E+000	5.20000E-001	1.04022E-003	7	...........	-327.66
	852	0.1706	5.29937E-001	2.96322E-005	0.00000E+000	5.30000E-001	1.21522E-003	7	...........	-327.66
	853	0.1708	5.39975E-001	2.96134E-005	0.00000E+000	5.40000E-001	1.09022E-003	7	...........	-327.66
	854	0.171	5.49987E-001	2.95969E-005	0.00000E+000	5.50000E-001	1.29022E-003	7	...........	-327.66
	855	0.1712	5.59887E-001	2.95879E-005	0.00000E+000	5.60000E-001	1.21522E-003	7	...........	-327.66
	856	0.1714	5.69900E-001	2.95762E-005	0.00000E+000	5.70000E-001	1.06522E-003	7	...........	-327.66
	857	0.1716	5.79937E-001	2.95729E-005	0.00000E+000	5.80000E-001	1.19022E-003	7	...........	-327.66
	858	0.1718	5.89962E-001	2.95742E-005	0.00000E+000	5.90000E-001	1.09022E-003	7	...........	-327.66
	859	0.172	5.99950E-001	2.95809E-005	0.00000E+000	6.00000E-001	1.09022E-003	7	...........	-327.66
CURVE4	TABLE
	Pt	T	Vf	Im	Vu	Sig	Ach	IERange	Over	Temp
	#	s	V vs. Ref.	A	V	V	V	#	bits	deg C
	860	0.1722	5.89950E-001	2.70671E-005	0.00000E+000	5.90000E-001	1.09022E-003	7	...........	-327.66
	861	0.1724	5.79962E-001	2.47375E-005	0.00000E+000	5.80000E-001	1.06522E-003	7	...........	-327.66
	862	0.1726	5.70000E-001	2.28155E-005	0.00000E+000	5.70000E-001	9.40224E-004	7	...........	-327.66
	863	0.1728	5.60012E-001	2.11625E-005	0.00000E+000	5.60000E-001	1.29022E-003	7	...........	-327.66
	864	0.173	5.49937E-001	1.96888E-005	0.00000E+000	5.50000E-001	9.40224E-004	7	...........	-327.66
	865	0.1732	5.39937E-001	1.83597E-005	0.00000E+000	5.40000E-001	9.90224E-004	7	...........	-327.66
	866	0.1734	5.29962E-001	1.71365E-005	0.00000E+000	5.30000E-001	1.29022E-003	7	...........	-327.66
	867	0.1736	5.20000E-001	1.60006E-005	0.00000E+000	5.20000E-001	1.21522E-003	7	...........	-327.66
	868	0.1738	5.09937E-001	1.49399E-005	0.00000E+000	5.10000E-001	1.09022E-003	7	...........	-327.66
	869	0.174	4.99975E-001	1.39378E-005	0.00000E+000	5.00000E-001	1.04022E-003	7	...........	-327.66
	870	0.1742	4.89975E-001	1.29849E-005	0.00000E+000	4.90000E-001	1.09022E-003	7	...........	-327.66
	871	0.1744	4.79937E-001	1.20743E-005	0.00000E+000	4.80000E-001	1.09022E-003	7	...........	-327.66
	872	0.1746	4.69937E-001	1.12074E-005	0.00000E+000	4.70000E-001	1.04022E-003	7	...........	-327.66
	873	0.1748	4.59937E-001	1.03731E-005	0.00000E+000	4.60000E-001	1.11522E-003	7	...........	-327.66
	874	0.175	4.50112E-001	9.57146E-006	0.00000E+000	4.50000E-001	1.14022E-003	7	...........	-327.66
	875	0.1752	4.39987E-001	8.79085E-006	0.00000E+000	4.40000E-001	1.24022E-003	7	...........	-327.66
	876	0.1754	4.30087E-001	8.04125E-006	0.00000E+000	4.30000E-001	1.14022E-003	7	...........	-327.66
	877	0.1756	4.20050E-001	7.31365E-006	0.00000E+000	4.20000E-001	1.09022E-003	7	...........	-327.66
	878	0.1758	4.10062E-001	6.60705E-006	0.00000E+000	4.10000E-001	1.11522E-003	7	...........	-327.66
	879	0.176	4.00000E-001	5.91871E-006	0.00000E+000	4.00000E-001	1.14022E-003	7	...........	-327.66
	880	0.1762	3.89987E-001	5.24512E-006	0.00000E+000	3.90000E-001	1.01522E-003	7	...........	-327.66
	881	0.1764	3.79987E-001	4.59803E-006	0.00000E+000	3.80000E-001	1.19022E-003	7	...........	-327.66
	882	0.1766	3.70037E-001	3.95994E-006	0.00000E+000	3.70000E-001	1.19022E-003	7	...........	-327.66
	883	0.1768	3.60037E-001	3.33486E-006	0.00000E+000	3.60000E-001	1.19022E-003	7	...........	-327.66
	884	0.177	3.50087E-001	2.72928E-006	0.00000E+000	3.50000E-001	1.09022E-003	7	...........	-327.66
	885	0.1772	3.40012E-001	2.13494E-006	0.00000E+000	3.40000E-001	1.06522E-003	7	...........	-327.66
	886	0.1774	3.30175E-001	1.55412E-006	0.00000E+000	3.30000E-001	1.09022E-003	7	...........	-327.66
	887	0.1776	3.19987E-001	9.83538E-007	0.00000E+000	3.20000E-001	8.65224E-004	7	...........	-327.66
	888	0.1778	3.09987E-001	4.26462E-007	0.00000E+000	3.10000E-001	1.04022E-003	7	...........	-327.66
	889	0.178	3.00012E-001	-1.20613E-007	0.00000E+000	3.00000E-001	1.04022E-003	7	...........	-327.66
	890	0.1782	2.90075E-001	-6.57436E-007	0.00000E+000	2.90000E-001	1.11522E-003	7	...........	-327.66
	891	0.1784	2.80075E-001	-1.18751E-006	0.00000E+000	2.80000E-001	8.40224E-004	7	...........	-327.66
	892	0.1786	2.70112E-001	-1.70533E-006	0.00000E+000	2.70000E-001	1.09022E-003	7	...........	-327.66
	893	0.1788	2.59962E-001	-2.21365E-006	0.00000E+000	2.60000E-001	1.14022E-003	7	...........	-327.66
	894	0.179	2.50062E-001	-2.71372E-006	0.00000E+000	2.50000E-001	1.19022E-003	7	...........	-327.66
	895	0.1792	2.40050E-001	-3.20278E-006	0.00000E+000	2.40000E-001	1.04022E-003	7	...........	-327.66
	896	0.1794	2.29987E-001	-3.69260E-006	0.00000E+000	2.30000E-001	1.09022E-003	7	...........	-327.66
	897	0.1796	2.20062E-001	-4.17041E-006	0.00000E+000	2.20000E-001	1.11522E-003	7	...........	-327.66
	898	0.1798	2.10225E-001	-4.63973E-006	0.00000E+000	2.10000E-001	1.24022E-003	7	...........	-327.66
	899	0.18	2.00087E-001	-5.10579E-006	0.00000E+000	2.00000E-001	1.11522E-003	7	...........	-327.66
	900	0.1802	1.90187E-001	-5.56460E-006	0.00000E+000	1.90000E-001	9.90224E-004	7	...........	-327.66
