EXPLAIN
TAG	CV
TITLE	LABEL	CV50	Test Identifier
DATE	LABEL	5/9/2025	Date
TIME	LABEL	15:24:07	Time
NOTES	NOTES	1	Notes...
	
PSTAT	PSTAT	REF600P-43058	Potentiostat
VINIT	POTEN	0.00000E+000	T	Initial E (V)
VLIMIT1	POTEN	-9.00000E-001	F	Scan Limit 1 (V)
VLIMIT2	POTEN	6.00000E-001	F	Scan Limit 2 (V)
VFINAL	POTEN	0.00000E+000	T	Final E (V)
SCANRATE	QUANT	4.99999E+001	Scan Rate (mV/s)
STEPSIZE	QUANT	1.00000E+001	Step Size (mV)
CYCLES	IQUANT	3	Cycles (#)
IMODE	SELECTOR	1	I/E Range Mode
IRANGE	QUANT	1.00000E-003	Max Current (mA)
AREA	QUANT	1.00000E+000	Sample Area (cm^2)
EQDELAY	QUANT	5.00000E+000	Equil. Time (s)
IRCOMP	SELECTOR	0	IRComp
PFCOR	QUANT	5.00000E+001	PF Corr. (ohm)
SAMPLINGMODE	SELECTOR	2	Sampling Mode
EOC	QUANT	0.1338838	Open Circuit (V)
ELECTRODETYPE	SELECTOR	0	Electrode Type
STRIPPING	TOGGLE	F	Used for Stripping
SEQUENCER	TOGGLE	TRUE	Run as Sequence
PSTATMODEL	IQUANT	7	Pstat Model
PSTATSECTION	LABEL	REF600P-43058	Pstat Section
PSTATSERIALNO	LABEL	43058	Pstat Serial Number
CTRLMODE	IQUANT	1	Control Mode
ELECTROMETER	IQUANT	0	RE=0 or CS=1
IESTAB	IQUANT	2	I/E Stability
CASPEED	IQUANT	4	Control Amp Speed
CONVENTION	IQUANT	1	Current Convention
ICHRANGE	IQUANT	2	Ich Range
ICHRANGEMODE	TOGGLE	F	Ich Auto Range
ICHOFFSETENABLE	TOGGLE	F	Ich Offset Enable
ICHOFFSET	QUANT	0	Ich Offset (V)
ICHFILTER	IQUANT	2	Ich Filter
VCHRANGE	IQUANT	2	Vch Range
VCHRANGEMODE	TOGGLE	F	Vch Auto Range
VCHOFFSETENABLE	TOGGLE	F	Vch Offset Enable
VCHOFFSET	QUANT	0	Vch Offset (V)
VCHFILTER	IQUANT	2	Vch Filter
ACHRANGE	IQUANT	2	Ach Range
ACHOFFSETENABLE	TOGGLE	F	Ach Offset Enable
ACHOFFSET	QUANT	0	Ach Offset (V)
ACHFILTER	IQUANT	1	Ach Filter
IERANGELOWERLIMIT	IQUANT	1	I/E Range Lower Limit
IERANGEMODE	TOGGLE	F	I/E AutoRange
IERANGE	IQUANT	6	I/E Range
POSFEEDENABLE	TOGGLE	F	Positive Feedback IR Comp
POSFEEDRESISTANCE	QUANT	0	Positive Feedback Resistance (ohm)
ACHSELECT	IQUANT	4	Ach Select
SENSECABLEID	IQUANT	7	Sense Cable ID
PWRCABLEID	IQUANT	7	Power Cable ID
DCCALDATE	LABEL	5/8/2025	DC Calibration Date
ACCALDATE	LABEL	5/8/2025	AC Calibration Date
THERMOSELECT	IQUANT	1	Thermo Select
FRAMEWORKVERSION	LABEL	7.10.4	Framework Version
INSTRUMENTVERSION	LABEL	5.01	Instrument Version
COMMVERSION	LABEL	5.10	Communications Version
CPUPLDVERSION	LABEL	6.00	CPU PLD Version
CTRLPLDVERSION	LABEL	3.21	CTRL PLD Version
PSTATPLDVERSION	LABEL	0.00	PSTAT PLD Version
CURVE1	TABLE
	Pt	T	Vf	Im	Vu	Sig	Ach	IERange	Over	Temp
	#	s	V vs. Ref.	A	V	V	V	#	bits	deg C
	0	0.2	1.33924E-001	5.26439E-010	0.00000E+000	1.33900E-001	1.41056E-003	6	...........	-327.66
	1	0.4	1.23983E-001	-3.22535E-008	0.00000E+000	1.23900E-001	1.40826E-003	6	...........	-327.66
	2	0.6	1.13961E-001	-3.27059E-008	0.00000E+000	1.13900E-001	1.42128E-003	6	...........	-327.66
	3	0.8	1.03881E-001	-3.29837E-008	0.00000E+000	1.03900E-001	1.41710E-003	6	...........	-327.66
	4	1	9.39523E-002	-3.32900E-008	0.00000E+000	9.39000E-002	1.41927E-003	6	...........	-327.66
	5	1.2	8.39799E-002	-3.35204E-008	0.00000E+000	8.39000E-002	1.41975E-003	6	...........	-327.66
	6	1.4	7.39490E-002	-3.36676E-008	0.00000E+000	7.39000E-002	1.40233E-003	6	...........	-327.66
	7	1.6	6.39493E-002	-3.40176E-008	0.00000E+000	6.39000E-002	1.41730E-003	6	...........	-327.66
	8	1.8	5.39370E-002	-3.43522E-008	0.00000E+000	5.39000E-002	1.40786E-003	6	...........	-327.66
	9	2	4.39774E-002	-3.46678E-008	0.00000E+000	4.39000E-002	1.41842E-003	6	...........	-327.66
	10	2.2	3.39541E-002	-3.49037E-008	0.00000E+000	3.39000E-002	1.41286E-003	6	...........	-327.66
	11	2.4	2.38946E-002	-3.52821E-008	0.00000E+000	2.39000E-002	1.42050E-003	6	...........	-327.66
	12	2.6	1.39856E-002	-3.56259E-008	0.00000E+000	1.39000E-002	1.41046E-003	6	...........	-327.66
	13	2.8	3.99596E-003	-3.60151E-008	0.00000E+000	3.89999E-003	1.42280E-003	6	...........	-327.66
	14	3	-6.07262E-003	-3.63003E-008	0.00000E+000	-6.10001E-003	1.41417E-003	6	...........	-327.66
	15	3.2	-1.60381E-002	-3.66919E-008	0.00000E+000	-1.61000E-002	1.41372E-003	6	...........	-327.66
	16	3.4	-2.60821E-002	-3.71079E-008	0.00000E+000	-2.61000E-002	1.41828E-003	6	...........	-327.66
	17	3.6	-3.59963E-002	-3.74917E-008	0.00000E+000	-3.61000E-002	1.42167E-003	6	...........	-327.66
	18	3.8	-4.60720E-002	-3.79417E-008	0.00000E+000	-4.61000E-002	1.42008E-003	6	...........	-327.66
	19	4	-5.60489E-002	-3.83500E-008	0.00000E+000	-5.61000E-002	1.42519E-003	6	...........	-327.66
	20	4.2	-6.60416E-002	-3.88342E-008	0.00000E+000	-6.61000E-002	1.42384E-003	6	...........	-327.66
	21	4.4	-7.60073E-002	-3.92283E-008	0.00000E+000	-7.61000E-002	1.42255E-003	6	...........	-327.66
	22	4.6	-8.60474E-002	-3.96388E-008	0.00000E+000	-8.61000E-002	1.42068E-003	6	...........	-327.66
	23	4.8	-9.60404E-002	-4.01365E-008	0.00000E+000	-9.61000E-002	1.41875E-003	6	...........	-327.66
	24	5	-1.06091E-001	-4.06118E-008	0.00000E+000	-1.06100E-001	1.41600E-003	6	...........	-327.66
	25	5.2	-1.15997E-001	-4.10795E-008	0.00000E+000	-1.16100E-001	1.42002E-003	6	...........	-327.66
	26	5.4	-1.26092E-001	-4.15354E-008	0.00000E+000	-1.26100E-001	1.42065E-003	6	...........	-327.66
	27	5.6	-1.36058E-001	-4.20764E-008	0.00000E+000	-1.36100E-001	1.42512E-003	6	...........	-327.66
	28	5.8	-1.46083E-001	-4.25827E-008	0.00000E+000	-1.46100E-001	1.42734E-003	6	...........	-327.66
	29	6	-1.56002E-001	-4.30761E-008	0.00000E+000	-1.56100E-001	1.42048E-003	6	...........	-327.66
	30	6.2	-1.66062E-001	-4.36060E-008	0.00000E+000	-1.66100E-001	1.41717E-003	6	...........	-327.66
	31	6.4	-1.76083E-001	-4.41719E-008	0.00000E+000	-1.76100E-001	1.41908E-003	6	...........	-327.66
	32	6.6	-1.86069E-001	-4.47253E-008	0.00000E+000	-1.86100E-001	1.41857E-003	6	...........	-327.66
	33	6.8	-1.95986E-001	-4.52835E-008	0.00000E+000	-1.96100E-001	1.42602E-003	6	...........	-327.66
	34	7	-2.06040E-001	-4.58396E-008	0.00000E+000	-2.06100E-001	1.42333E-003	6	...........	-327.66
	35	7.2	-2.15982E-001	-4.64209E-008	0.00000E+000	-2.16100E-001	1.42218E-003	6	...........	-327.66
	36	7.4	-2.26050E-001	-4.70571E-008	0.00000E+000	-2.26100E-001	1.42760E-003	6	...........	-327.66
	37	7.6	-2.36012E-001	-4.76177E-008	0.00000E+000	-2.36100E-001	1.42695E-003	6	...........	-327.66
	38	7.8	-2.46031E-001	-4.82038E-008	0.00000E+000	-2.46100E-001	1.41515E-003	6	...........	-327.66
	39	8	-2.56046E-001	-4.88157E-008	0.00000E+000	-2.56100E-001	1.41545E-003	6	...........	-327.66
	40	8.2	-2.66038E-001	-4.94576E-008	0.00000E+000	-2.66100E-001	1.41493E-003	6	...........	-327.66
	41	8.4	-2.75988E-001	-5.00909E-008	0.00000E+000	-2.76100E-001	1.42262E-003	6	...........	-327.66
	42	8.6	-2.86032E-001	-5.06713E-008	0.00000E+000	-2.86100E-001	1.41360E-003	6	...........	-327.66
	43	8.8	-2.96041E-001	-5.13198E-008	0.00000E+000	-2.96100E-001	1.42915E-003	6	...........	-327.66
	44	9	-3.06049E-001	-5.19573E-008	0.00000E+000	-3.06100E-001	1.42250E-003	6	...........	-327.66
	45	9.2	-3.16013E-001	-5.26273E-008	0.00000E+000	-3.16100E-001	1.43154E-003	6	...........	-327.66
	46	9.4	-3.26052E-001	-5.31816E-008	0.00000E+000	-3.26100E-001	1.41280E-003	6	...........	-327.66
	47	9.6	-3.36046E-001	-5.37601E-008	0.00000E+000	-3.36100E-001	1.41648E-003	6	...........	-327.66
	48	9.8	-3.46044E-001	-5.44166E-008	0.00000E+000	-3.46100E-001	1.41965E-003	6	...........	-327.66
	49	10	-3.56007E-001	-5.49612E-008	0.00000E+000	-3.56100E-001	1.42517E-003	6	...........	-327.66
	50	10.2	-3.66041E-001	-5.55355E-008	0.00000E+000	-3.66100E-001	1.42430E-003	6	...........	-327.66
	51	10.4	-3.76060E-001	-5.60468E-008	0.00000E+000	-3.76100E-001	1.42800E-003	6	...........	-327.66
	52	10.6	-3.86040E-001	-5.66109E-008	0.00000E+000	-3.86100E-001	1.42897E-003	6	...........	-327.66
	53	10.8	-3.96017E-001	-5.71035E-008	0.00000E+000	-3.96100E-001	1.41643E-003	6	...........	-327.66
	54	11	-4.06049E-001	-5.75904E-008	0.00000E+000	-4.06100E-001	1.41397E-003	6	...........	-327.66
	55	11.2	-4.16046E-001	-5.80943E-008	0.00000E+000	-4.16100E-001	1.41592E-003	6	...........	-327.66
	56	11.4	-4.26021E-001	-5.85737E-008	0.00000E+000	-4.26100E-001	1.42120E-003	6	...........	-327.66
	57	11.6	-4.35999E-001	-5.90512E-008	0.00000E+000	-4.36100E-001	1.42675E-003	6	...........	-327.66
	58	11.8	-4.45976E-001	-5.94775E-008	0.00000E+000	-4.46100E-001	1.42889E-003	6	...........	-327.66
	59	12	-4.56039E-001	-6.00142E-008	0.00000E+000	-4.56100E-001	1.42950E-003	6	...........	-327.66
	60	12.2	-4.66027E-001	-6.04690E-008	0.00000E+000	-4.66100E-001	1.42450E-003	6	...........	-327.66
	61	12.4	-4.75945E-001	-6.09027E-008	0.00000E+000	-4.76100E-001	1.42562E-003	6	...........	-327.66
	62	12.6	-4.86044E-001	-6.13466E-008	0.00000E+000	-4.86100E-001	1.41777E-003	6	...........	-327.66
	63	12.8	-4.95997E-001	-6.18135E-008	0.00000E+000	-4.96100E-001	1.42899E-003	6	...........	-327.66
	64	13	-5.06026E-001	-6.23522E-008	0.00000E+000	-5.06100E-001	1.42852E-003	6	...........	-327.66
	65	13.2	-5.15981E-001	-6.27559E-008	0.00000E+000	-5.16100E-001	1.42617E-003	6	...........	-327.66
	66	13.4	-5.26002E-001	-6.32371E-008	0.00000E+000	-5.26100E-001	1.43592E-003	6	...........	-327.66
	67	13.6	-5.36030E-001	-6.37011E-008	0.00000E+000	-5.36100E-001	1.42549E-003	6	...........	-327.66
	68	13.8	-5.46031E-001	-6.42746E-008	0.00000E+000	-5.46100E-001	1.43459E-003	6	...........	-327.66
	69	14	-5.55962E-001	-6.47246E-008	0.00000E+000	-5.56100E-001	1.42945E-003	6	...........	-327.66
	70	14.2	-5.65997E-001	-6.50927E-008	0.00000E+000	-5.66100E-001	1.42489E-003	6	...........	-327.66
	71	14.4	-5.75985E-001	-6.57139E-008	0.00000E+000	-5.76100E-001	1.42384E-003	6	...........	-327.66
	72	14.6	-5.86025E-001	-6.61881E-008	0.00000E+000	-5.86100E-001	1.42098E-003	6	...........	-327.66
	73	14.8	-5.95981E-001	-6.67002E-008	0.00000E+000	-5.96100E-001	1.43137E-003	6	...........	-327.66
	74	15	-6.05984E-001	-6.70781E-008	0.00000E+000	-6.06100E-001	1.42258E-003	6	...........	-327.66
	75	15.2	-6.15991E-001	-6.75342E-008	0.00000E+000	-6.16100E-001	1.43644E-003	6	...........	-327.66
	76	15.4	-6.25755E-001	-6.78997E-008	0.00000E+000	-6.26100E-001	1.42594E-003	6	...........	-327.66
	77	15.6	-6.35935E-001	-6.82901E-008	0.00000E+000	-6.36100E-001	1.42872E-003	6	...........	-327.66
	78	15.8	-6.45953E-001	-6.85747E-008	0.00000E+000	-6.46100E-001	1.42607E-003	6	...........	-327.66
	79	16	-6.55935E-001	-6.88406E-008	0.00000E+000	-6.56100E-001	1.42880E-003	6	...........	-327.66
	80	16.2	-6.65989E-001	-6.90513E-008	0.00000E+000	-6.66100E-001	1.42510E-003	6	...........	-327.66
	81	16.4	-6.75947E-001	-6.90097E-008	0.00000E+000	-6.76100E-001	1.42322E-003	6	...........	-327.66
	82	16.6	-6.85971E-001	-6.88424E-008	0.00000E+000	-6.86100E-001	1.43319E-003	6	...........	-327.66
	83	16.8	-6.96005E-001	-6.83085E-008	0.00000E+000	-6.96100E-001	1.42217E-003	6	...........	-327.66
	84	17	-7.05953E-001	-6.75027E-008	0.00000E+000	-7.06100E-001	1.43766E-003	6	...........	-327.66
	85	17.2	-7.15972E-001	-6.63165E-008	0.00000E+000	-7.16100E-001	1.43242E-003	6	...........	-327.66
	86	17.4	-7.25950E-001	-6.47812E-008	0.00000E+000	-7.26100E-001	1.41720E-003	6	...........	-327.66
	87	17.6	-7.35972E-001	-6.30386E-008	0.00000E+000	-7.36100E-001	1.42145E-003	6	...........	-327.66
	88	17.8	-7.46010E-001	-6.09535E-008	0.00000E+000	-7.46100E-001	1.42470E-003	6	...........	-327.66
	89	18	-7.55916E-001	-5.86501E-008	0.00000E+000	-7.56100E-001	1.44439E-003	6	...........	-327.66
	90	18.2	-7.65993E-001	-5.60815E-008	0.00000E+000	-7.66100E-001	1.43340E-003	6	...........	-327.66
	91	18.4	-7.76004E-001	-5.34884E-008	0.00000E+000	-7.76100E-001	1.43516E-003	6	...........	-327.66
	92	18.6	-7.85980E-001	-5.06985E-008	0.00000E+000	-7.86100E-001	1.43319E-003	6	...........	-327.66
	93	18.8	-7.95977E-001	-4.80525E-008	0.00000E+000	-7.96100E-001	1.43289E-003	6	...........	-327.66
	94	19	-8.05907E-001	-4.52943E-008	0.00000E+000	-8.06100E-001	1.43951E-003	6	...........	-327.66
	95	19.2	-8.15990E-001	-4.27687E-008	0.00000E+000	-8.16100E-001	1.42260E-003	6	...........	-327.66
	96	19.4	-8.26007E-001	-4.02802E-008	0.00000E+000	-8.26100E-001	1.42745E-003	6	...........	-327.66
	97	19.6	-8.35907E-001	-3.77365E-008	0.00000E+000	-8.36100E-001	1.43834E-003	6	...........	-327.66
	98	19.8	-8.45991E-001	-3.55618E-008	0.00000E+000	-8.46100E-001	1.43687E-003	6	...........	-327.66
	99	20	-8.55955E-001	-3.36690E-008	0.00000E+000	-8.56100E-001	1.44398E-003	6	...........	-327.66
	100	20.2	-8.65984E-001	-3.20212E-008	0.00000E+000	-8.66100E-001	1.44232E-003	6	...........	-327.66
	101	20.4	-8.75972E-001	-3.05158E-008	0.00000E+000	-8.76100E-001	1.43721E-003	6	...........	-327.66
	102	20.6	-8.85954E-001	-2.90035E-008	0.00000E+000	-8.86100E-001	1.42949E-003	6	...........	-327.66
	103	20.8	-8.96011E-001	-2.79128E-008	0.00000E+000	-8.96100E-001	1.43294E-003	6	...........	-327.66
	104	21	-8.86007E-001	-2.36627E-008	0.00000E+000	-8.86100E-001	1.42924E-003	6	...........	-327.66
	105	21.2	-8.76023E-001	-2.15168E-008	0.00000E+000	-8.76100E-001	1.43846E-003	6	...........	-327.66
	106	21.4	-8.66044E-001	-1.97591E-008	0.00000E+000	-8.66100E-001	1.43806E-003	6	...........	-327.66
	107	21.6	-8.56027E-001	-1.80942E-008	0.00000E+000	-8.56100E-001	1.44026E-003	6	...........	-327.66
	108	21.8	-8.46039E-001	-1.65908E-008	0.00000E+000	-8.46100E-001	1.43592E-003	6	...........	-327.66
	109	22	-8.35962E-001	-1.51399E-008	0.00000E+000	-8.36100E-001	1.43089E-003	6	...........	-327.66
	110	22.2	-8.26030E-001	-1.35954E-008	0.00000E+000	-8.26100E-001	1.43334E-003	6	...........	-327.66
	111	22.4	-8.16082E-001	-1.19053E-008	0.00000E+000	-8.16100E-001	1.42792E-003	6	...........	-327.66
	112	22.6	-8.05962E-001	-1.00851E-008	0.00000E+000	-8.06100E-001	1.42979E-003	6	...........	-327.66
	113	22.8	-7.96023E-001	-8.08896E-009	0.00000E+000	-7.96100E-001	1.43769E-003	6	...........	-327.66
	114	23	-7.86014E-001	-5.79469E-009	0.00000E+000	-7.86100E-001	1.43409E-003	6	...........	-327.66
	115	23.2	-7.76042E-001	-3.20775E-009	0.00000E+000	-7.76100E-001	1.43697E-003	6	...........	-327.66
	116	23.4	-7.66034E-001	-2.00662E-010	0.00000E+000	-7.66100E-001	1.42999E-003	6	...........	-327.66
	117	23.6	-7.55971E-001	3.12732E-009	0.00000E+000	-7.56100E-001	1.44336E-003	6	...........	-327.66
	118	23.8	-7.46041E-001	6.85134E-009	0.00000E+000	-7.46100E-001	1.43132E-003	6	...........	-327.66
	119	24	-7.36049E-001	1.08037E-008	0.00000E+000	-7.36100E-001	1.43621E-003	6	...........	-327.66
	120	24.2	-7.26018E-001	1.50881E-008	0.00000E+000	-7.26100E-001	1.42409E-003	6	...........	-327.66
	121	24.4	-7.16022E-001	1.91809E-008	0.00000E+000	-7.16100E-001	1.43394E-003	6	...........	-327.66
	122	24.6	-7.06025E-001	2.29302E-008	0.00000E+000	-7.06100E-001	1.43587E-003	6	...........	-327.66
	123	24.8	-6.96040E-001	2.58434E-008	0.00000E+000	-6.96100E-001	1.42740E-003	6	...........	-327.66
	124	25	-6.86036E-001	2.76190E-008	0.00000E+000	-6.86100E-001	1.43364E-003	6	...........	-327.66
	125	25.2	-6.76017E-001	2.83283E-008	0.00000E+000	-6.76100E-001	1.42820E-003	6	...........	-327.66
	126	25.4	-6.66029E-001	2.83819E-008	0.00000E+000	-6.66100E-001	1.43119E-003	6	...........	-327.66
	127	25.6	-6.56038E-001	2.81143E-008	0.00000E+000	-6.56100E-001	1.42622E-003	6	...........	-327.66
	128	25.8	-6.46009E-001	2.78342E-008	0.00000E+000	-6.46100E-001	1.43340E-003	6	...........	-327.66
	129	26	-6.36017E-001	2.75388E-008	0.00000E+000	-6.36100E-001	1.43532E-003	6	...........	-327.66
	130	26.2	-6.25976E-001	2.75501E-008	0.00000E+000	-6.26100E-001	1.43644E-003	6	...........	-327.66
	131	26.4	-6.16047E-001	2.75082E-008	0.00000E+000	-6.16100E-001	1.43614E-003	6	...........	-327.66
	132	26.6	-6.06049E-001	2.75998E-008	0.00000E+000	-6.06100E-001	1.42950E-003	6	...........	-327.66
	133	26.8	-5.96029E-001	2.76561E-008	0.00000E+000	-5.96100E-001	1.43227E-003	6	...........	-327.66
	134	27	-5.86052E-001	2.78873E-008	0.00000E+000	-5.86100E-001	1.43471E-003	6	...........	-327.66
	135	27.2	-5.76047E-001	2.81649E-008	0.00000E+000	-5.76100E-001	1.42887E-003	6	...........	-327.66
	136	27.4	-5.66040E-001	2.85041E-008	0.00000E+000	-5.66100E-001	1.42032E-003	6	...........	-327.66
	137	27.6	-5.56016E-001	2.86991E-008	0.00000E+000	-5.56100E-001	1.43719E-003	6	...........	-327.66
	138	27.8	-5.46055E-001	2.90564E-008	0.00000E+000	-5.46100E-001	1.43354E-003	6	...........	-327.66
	139	28	-5.36097E-001	2.94284E-008	0.00000E+000	-5.36100E-001	1.42824E-003	6	...........	-327.66
	140	28.2	-5.26038E-001	2.98111E-008	0.00000E+000	-5.26100E-001	1.43259E-003	6	...........	-327.66
	141	28.4	-5.16022E-001	3.01919E-008	0.00000E+000	-5.16100E-001	1.42732E-003	6	...........	-327.66
	142	28.6	-5.06058E-001	3.06184E-008	0.00000E+000	-5.06100E-001	1.43596E-003	6	...........	-327.66
	143	28.8	-4.96052E-001	3.11435E-008	0.00000E+000	-4.96100E-001	1.43474E-003	6	...........	-327.66
	144	29	-4.86066E-001	3.16006E-008	0.00000E+000	-4.86100E-001	1.42110E-003	6	...........	-327.66
	145	29.2	-4.75989E-001	3.20826E-008	0.00000E+000	-4.76100E-001	1.43766E-003	6	...........	-327.66
	146	29.4	-4.66050E-001	3.26109E-008	0.00000E+000	-4.66100E-001	1.43897E-003	6	...........	-327.66
	147	29.6	-4.56092E-001	3.31140E-008	0.00000E+000	-4.56100E-001	1.43737E-003	6	...........	-327.66
	148	29.8	-4.46012E-001	3.37384E-008	0.00000E+000	-4.46100E-001	1.43220E-003	6	...........	-327.66
	149	30	-4.36024E-001	3.42828E-008	0.00000E+000	-4.36100E-001	1.43112E-003	6	...........	-327.66
	150	30.2	-4.26069E-001	3.49371E-008	0.00000E+000	-4.26100E-001	1.43219E-003	6	...........	-327.66
	151	30.4	-4.16042E-001	3.54100E-008	0.00000E+000	-4.16100E-001	1.42507E-003	6	...........	-327.66
	152	30.6	-4.06095E-001	3.61123E-008	0.00000E+000	-4.06100E-001	1.42994E-003	6	...........	-327.66
	153	30.8	-3.96036E-001	3.68208E-008	0.00000E+000	-3.96100E-001	1.43741E-003	6	...........	-327.66
	154	31	-3.86082E-001	3.74023E-008	0.00000E+000	-3.86100E-001	1.43939E-003	6	...........	-327.66
	155	31.2	-3.76060E-001	3.80022E-008	0.00000E+000	-3.76100E-001	1.43961E-003	6	...........	-327.66
	156	31.4	-3.66077E-001	3.85908E-008	0.00000E+000	-3.66100E-001	1.42980E-003	6	...........	-327.66
	157	31.6	-3.56030E-001	3.91829E-008	0.00000E+000	-3.56100E-001	1.43644E-003	6	...........	-327.66
	158	31.8	-3.46072E-001	3.97457E-008	0.00000E+000	-3.46100E-001	1.43586E-003	6	...........	-327.66
	159	32	-3.36065E-001	4.03443E-008	0.00000E+000	-3.36100E-001	1.43037E-003	6	...........	-327.66
	160	32.2	-3.26081E-001	4.08906E-008	0.00000E+000	-3.26100E-001	1.43489E-003	6	...........	-327.66
	161	32.4	-3.16026E-001	4.13985E-008	0.00000E+000	-3.16100E-001	1.43442E-003	6	...........	-327.66
	162	32.6	-3.06086E-001	4.19603E-008	0.00000E+000	-3.06100E-001	1.43416E-003	6	...........	-327.66
	163	32.8	-2.96063E-001	4.24696E-008	0.00000E+000	-2.96100E-001	1.43079E-003	6	...........	-327.66
	164	33	-2.86061E-001	4.30224E-008	0.00000E+000	-2.86100E-001	1.42932E-003	6	...........	-327.66
	165	33.2	-2.76026E-001	4.34391E-008	0.00000E+000	-2.76100E-001	1.43337E-003	6	...........	-327.66
	166	33.4	-2.66076E-001	4.39429E-008	0.00000E+000	-2.66100E-001	1.42617E-003	6	...........	-327.66
	167	33.6	-2.56061E-001	4.43969E-008	0.00000E+000	-2.56100E-001	1.42318E-003	6	...........	-327.66
	168	33.8	-2.46081E-001	4.48669E-008	0.00000E+000	-2.46100E-001	1.41345E-003	6	...........	-327.66
	169	34	-2.36033E-001	4.52409E-008	0.00000E+000	-2.36100E-001	1.43317E-003	6	...........	-327.66
	170	34.2	-2.26085E-001	4.55806E-008	0.00000E+000	-2.26100E-001	1.44224E-003	6	...........	-327.66
	171	34.4	-2.16019E-001	4.60331E-008	0.00000E+000	-2.16100E-001	1.43954E-003	6	...........	-327.66
	172	34.6	-2.06061E-001	4.63666E-008	0.00000E+000	-2.06100E-001	1.42615E-003	6	...........	-327.66
	173	34.8	-1.96041E-001	4.66642E-008	0.00000E+000	-1.96100E-001	1.43732E-003	6	...........	-327.66
	174	35	-1.86072E-001	4.69065E-008	0.00000E+000	-1.86100E-001	1.43354E-003	6	...........	-327.66
	175	35.2	-1.76140E-001	4.72147E-008	0.00000E+000	-1.76100E-001	1.42292E-003	6	...........	-327.66
	176	35.4	-1.66099E-001	4.75315E-008	0.00000E+000	-1.66100E-001	1.41700E-003	6	...........	-327.66
	177	35.6	-1.56039E-001	4.77155E-008	0.00000E+000	-1.56100E-001	1.42965E-003	6	...........	-327.66
	178	35.8	-1.46127E-001	4.79755E-008	0.00000E+000	-1.46100E-001	1.43539E-003	6	...........	-327.66
	179	36	-1.36136E-001	4.81379E-008	0.00000E+000	-1.36100E-001	1.43180E-003	6	...........	-327.66
	180	36.2	-1.26125E-001	4.84141E-008	0.00000E+000	-1.26100E-001	1.42949E-003	6	...........	-327.66
	181	36.4	-1.16031E-001	4.86676E-008	0.00000E+000	-1.16100E-001	1.44131E-003	6	...........	-327.66
	182	36.6	-1.06103E-001	4.88239E-008	0.00000E+000	-1.06100E-001	1.42617E-003	6	...........	-327.66
	183	36.8	-9.61216E-002	4.89053E-008	0.00000E+000	-9.61000E-002	1.42497E-003	6	...........	-327.66
	184	37	-8.60838E-002	4.91381E-008	0.00000E+000	-8.61000E-002	1.42654E-003	6	...........	-327.66
	185	37.2	-7.60428E-002	4.92394E-008	0.00000E+000	-7.61000E-002	1.43247E-003	6	...........	-327.66
	186	37.4	-6.60920E-002	4.94709E-008	0.00000E+000	-6.61000E-002	1.44052E-003	6	...........	-327.66
	187	37.6	-5.60736E-002	4.96898E-008	0.00000E+000	-5.61000E-002	1.43387E-003	6	...........	-327.66
	188	37.8	-4.61230E-002	4.96805E-008	0.00000E+000	-4.61000E-002	1.43200E-003	6	...........	-327.66
	189	38	-3.60213E-002	4.98640E-008	0.00000E+000	-3.61000E-002	1.42632E-003	6	...........	-327.66
	190	38.2	-2.60997E-002	5.00039E-008	0.00000E+000	-2.61000E-002	1.42650E-003	6	...........	-327.66
	191	38.4	-1.60686E-002	5.01841E-008	0.00000E+000	-1.61000E-002	1.42424E-003	6	...........	-327.66
	192	38.6	-6.09496E-003	5.01670E-008	0.00000E+000	-6.10001E-003	1.42892E-003	6	...........	-327.66
	193	38.8	3.96402E-003	5.02111E-008	0.00000E+000	3.89999E-003	1.43832E-003	6	...........	-327.66
	194	39	1.39407E-002	5.03861E-008	0.00000E+000	1.39000E-002	1.43687E-003	6	...........	-327.66
	195	39.2	2.39292E-002	5.05001E-008	0.00000E+000	2.39000E-002	1.43961E-003	6	...........	-327.66
	196	39.4	3.39330E-002	5.06613E-008	0.00000E+000	3.39000E-002	1.42900E-003	6	...........	-327.66
	197	39.6	4.39616E-002	5.05574E-008	0.00000E+000	4.39000E-002	1.42592E-003	6	...........	-327.66
	198	39.8	5.39368E-002	5.06876E-008	0.00000E+000	5.39000E-002	1.42427E-003	6	...........	-327.66
	199	40	6.39395E-002	5.10582E-008	0.00000E+000	6.39000E-002	1.43135E-003	6	...........	-327.66
	200	40.2	7.39365E-002	5.11317E-008	0.00000E+000	7.39000E-002	1.42959E-003	6	...........	-327.66
	201	40.4	8.39695E-002	5.12117E-008	0.00000E+000	8.39000E-002	1.43811E-003	6	...........	-327.66
	202	40.6	9.39470E-002	5.11963E-008	0.00000E+000	9.39000E-002	1.43681E-003	6	...........	-327.66
	203	40.8	1.03924E-001	5.13640E-008	0.00000E+000	1.03900E-001	1.42787E-003	6	...........	-327.66
	204	41	1.13930E-001	5.16118E-008	0.00000E+000	1.13900E-001	1.43534E-003	6	...........	-327.66
	205	41.2	1.23966E-001	5.17119E-008	0.00000E+000	1.23900E-001	1.42982E-003	6	...........	-327.66
	206	41.4	1.33936E-001	5.17998E-008	0.00000E+000	1.33900E-001	1.43476E-003	6	...........	-327.66
	207	41.6	1.43941E-001	5.20696E-008	0.00000E+000	1.43900E-001	1.42318E-003	6	...........	-327.66
	208	41.8	1.53918E-001	5.22537E-008	0.00000E+000	1.53900E-001	1.43294E-003	6	...........	-327.66
	209	42	1.63974E-001	5.24129E-008	0.00000E+000	1.63900E-001	1.43601E-003	6	...........	-327.66
	210	42.2	1.73945E-001	5.25616E-008	0.00000E+000	1.73900E-001	1.43787E-003	6	...........	-327.66
	211	42.4	1.83908E-001	5.27703E-008	0.00000E+000	1.83900E-001	1.43027E-003	6	...........	-327.66
	212	42.6	1.93792E-001	5.29453E-008	0.00000E+000	1.93900E-001	1.43866E-003	6	...........	-327.66
	213	42.8	2.03961E-001	5.30772E-008	0.00000E+000	2.03900E-001	1.43947E-003	6	...........	-327.66
	214	43	2.13889E-001	5.32556E-008	0.00000E+000	2.13900E-001	1.42499E-003	6	...........	-327.66
	215	43.2	2.23907E-001	5.34476E-008	0.00000E+000	2.23900E-001	1.43354E-003	6	...........	-327.66
	216	43.4	2.33915E-001	5.36908E-008	0.00000E+000	2.33900E-001	1.42675E-003	6	...........	-327.66
	217	43.6	2.43961E-001	5.37803E-008	0.00000E+000	2.43900E-001	1.43719E-003	6	...........	-327.66
	218	43.8	2.53927E-001	5.39791E-008	0.00000E+000	2.53900E-001	1.44064E-003	6	...........	-327.66
	219	44	2.63868E-001	5.41960E-008	0.00000E+000	2.63900E-001	1.43602E-003	6	...........	-327.66
	220	44.2	2.73907E-001	5.44464E-008	0.00000E+000	2.73900E-001	1.43731E-003	6	...........	-327.66
	221	44.4	2.83935E-001	5.46685E-008	0.00000E+000	2.83900E-001	1.42424E-003	6	...........	-327.66
	222	44.6	2.93867E-001	5.48662E-008	0.00000E+000	2.93900E-001	1.43384E-003	6	...........	-327.66
	223	44.8	3.03892E-001	5.52167E-008	0.00000E+000	3.03900E-001	1.43009E-003	6	...........	-327.66
	224	45	3.13899E-001	5.54688E-008	0.00000E+000	3.13900E-001	1.43356E-003	6	...........	-327.66
	225	45.2	3.23942E-001	5.57445E-008	0.00000E+000	3.23900E-001	1.44069E-003	6	...........	-327.66
	226	45.4	3.33902E-001	5.60644E-008	0.00000E+000	3.33900E-001	1.42935E-003	6	...........	-327.66
	227	45.6	3.43894E-001	5.64159E-008	0.00000E+000	3.43900E-001	1.43806E-003	6	...........	-327.66
	228	45.8	3.53920E-001	5.67723E-008	0.00000E+000	3.53900E-001	1.42619E-003	6	...........	-327.66
	229	46	3.63932E-001	5.71177E-008	0.00000E+000	3.63900E-001	1.42704E-003	6	...........	-327.66
	230	46.2	3.73907E-001	5.74745E-008	0.00000E+000	3.73900E-001	1.42949E-003	6	...........	-327.66
	231	46.4	3.83892E-001	5.78749E-008	0.00000E+000	3.83900E-001	1.43721E-003	6	...........	-327.66
	232	46.6	3.93882E-001	5.82946E-008	0.00000E+000	3.93900E-001	1.42153E-003	6	...........	-327.66
	233	46.8	4.03932E-001	5.86239E-008	0.00000E+000	4.03900E-001	1.43752E-003	6	...........	-327.66
	234	47	4.13873E-001	5.90319E-008	0.00000E+000	4.13900E-001	1.44613E-003	6	...........	-327.66
	235	47.2	4.23776E-001	5.95595E-008	0.00000E+000	4.23900E-001	1.43549E-003	6	...........	-327.66
	236	47.4	4.33913E-001	6.00272E-008	0.00000E+000	4.33900E-001	1.44276E-003	6	...........	-327.66
	237	47.6	4.43902E-001	6.05300E-008	0.00000E+000	4.43900E-001	1.43619E-003	6	...........	-327.66
	238	47.8	4.53923E-001	6.09717E-008	0.00000E+000	4.53900E-001	1.43737E-003	6	...........	-327.66
	239	48	4.63817E-001	6.15829E-008	0.00000E+000	4.63900E-001	1.42980E-003	6	...........	-327.66
	240	48.2	4.73896E-001	6.21453E-008	0.00000E+000	4.73900E-001	1.42312E-003	6	...........	-327.66
	241	48.4	4.83888E-001	6.27638E-008	0.00000E+000	4.83900E-001	1.43429E-003	6	...........	-327.66
	242	48.6	4.93845E-001	6.33923E-008	0.00000E+000	4.93900E-001	1.43275E-003	6	...........	-327.66
	243	48.8	5.03857E-001	6.40445E-008	0.00000E+000	5.03900E-001	1.43927E-003	6	...........	-327.66
	244	49	5.13881E-001	6.47298E-008	0.00000E+000	5.13900E-001	1.43654E-003	6	...........	-327.66
	245	49.2	5.23919E-001	6.54447E-008	0.00000E+000	5.23900E-001	1.43929E-003	6	...........	-327.66
	246	49.4	5.33908E-001	6.61900E-008	0.00000E+000	5.33900E-001	1.43154E-003	6	...........	-327.66
	247	49.6	5.43853E-001	6.69940E-008	0.00000E+000	5.43900E-001	1.43302E-003	6	...........	-327.66
	248	49.8	5.53883E-001	6.79642E-008	0.00000E+000	5.53900E-001	1.43344E-003	6	...........	-327.66
	249	50	5.63928E-001	6.89118E-008	0.00000E+000	5.63900E-001	1.44072E-003	6	...........	-327.66
	250	50.2	5.73856E-001	7.00143E-008	0.00000E+000	5.73900E-001	1.43886E-003	6	...........	-327.66
	251	50.4	5.83890E-001	7.12668E-008	0.00000E+000	5.83900E-001	1.44237E-003	6	...........	-327.66
	252	50.6	5.93848E-001	7.25601E-008	0.00000E+000	5.93900E-001	1.43792E-003	6	...........	-327.66
	253	50.8	6.03959E-001	7.40463E-008	0.00000E+000	6.03900E-001	1.42930E-003	6	...........	-327.66
CURVE2	TABLE
	Pt	T	Vf	Im	Vu	Sig	Ach	IERange	Over	Temp
	#	s	V vs. Ref.	A	V	V	V	#	bits	deg C
	254	51	5.89983E-001	-2.29625E-008	0.00000E+000	5.90000E-001	1.44161E-003	6	...........	-327.66
	255	51.2	5.79992E-001	-1.60895E-008	0.00000E+000	5.80000E-001	1.44269E-003	6	...........	-327.66
	256	51.4	5.69983E-001	-2.00719E-008	0.00000E+000	5.70000E-001	1.42649E-003	6	...........	-327.66
	257	51.6	5.59967E-001	-2.30438E-008	0.00000E+000	5.60000E-001	1.42927E-003	6	...........	-327.66
	258	51.8	5.49985E-001	-2.52237E-008	0.00000E+000	5.50000E-001	1.43017E-003	6	...........	-327.66
	259	52	5.39996E-001	-2.69724E-008	0.00000E+000	5.40000E-001	1.42357E-003	6	...........	-327.66
	260	52.2	5.30001E-001	-2.82538E-008	0.00000E+000	5.30000E-001	1.42952E-003	6	...........	-327.66
	261	52.4	5.19978E-001	-2.93360E-008	0.00000E+000	5.20000E-001	1.43192E-003	6	...........	-327.66
	262	52.6	5.09965E-001	-3.02477E-008	0.00000E+000	5.10000E-001	1.43124E-003	6	...........	-327.66
	263	52.8	5.00005E-001	-3.09583E-008	0.00000E+000	5.00000E-001	1.43209E-003	6	...........	-327.66
	264	53	4.89966E-001	-3.16885E-008	0.00000E+000	4.90000E-001	1.41782E-003	6	...........	-327.66
	265	53.2	4.79958E-001	-3.23342E-008	0.00000E+000	4.80000E-001	1.42228E-003	6	...........	-327.66
	266	53.4	4.69969E-001	-3.27834E-008	0.00000E+000	4.70000E-001	1.42724E-003	6	...........	-327.66
	267	53.6	4.59994E-001	-3.32855E-008	0.00000E+000	4.60000E-001	1.42999E-003	6	...........	-327.66
	268	53.8	4.50008E-001	-3.36427E-008	0.00000E+000	4.50000E-001	1.43686E-003	6	...........	-327.66
	269	54	4.39927E-001	-3.40877E-008	0.00000E+000	4.40000E-001	1.43664E-003	6	...........	-327.66
	270	54.2	4.29989E-001	-3.43774E-008	0.00000E+000	4.30000E-001	1.43669E-003	6	...........	-327.66
	271	54.4	4.20039E-001	-3.47211E-008	0.00000E+000	4.20000E-001	1.42764E-003	6	...........	-327.66
	272	54.6	4.09977E-001	-3.49599E-008	0.00000E+000	4.10000E-001	1.42564E-003	6	...........	-327.66
	273	54.8	3.99968E-001	-3.52935E-008	0.00000E+000	4.00000E-001	1.42869E-003	6	...........	-327.66
	274	55	3.89987E-001	-3.56105E-008	0.00000E+000	3.90000E-001	1.43292E-003	6	...........	-327.66
	275	55.2	3.79998E-001	-3.58599E-008	0.00000E+000	3.80000E-001	1.42504E-003	6	...........	-327.66
	276	55.4	3.70027E-001	-3.60250E-008	0.00000E+000	3.70000E-001	1.43512E-003	6	...........	-327.66
	277	55.6	3.59951E-001	-3.63041E-008	0.00000E+000	3.60000E-001	1.43040E-003	6	...........	-327.66
	278	55.8	3.50015E-001	-3.65219E-008	0.00000E+000	3.50000E-001	1.43782E-003	6	...........	-327.66
	279	56	3.40010E-001	-3.67432E-008	0.00000E+000	3.40000E-001	1.43057E-003	6	...........	-327.66
	280	56.2	3.30014E-001	-3.68652E-008	0.00000E+000	3.30000E-001	1.42213E-003	6	...........	-327.66
	281	56.4	3.19983E-001	-3.70985E-008	0.00000E+000	3.20000E-001	1.42005E-003	6	...........	-327.66
	282	56.6	3.09994E-001	-3.72639E-008	0.00000E+000	3.10000E-001	1.42505E-003	6	...........	-327.66
	283	56.8	2.99999E-001	-3.75084E-008	0.00000E+000	3.00000E-001	1.42887E-003	6	...........	-327.66
	284	57	2.90006E-001	-3.76014E-008	0.00000E+000	2.90000E-001	1.42524E-003	6	...........	-327.66
	285	57.2	2.79982E-001	-3.78024E-008	0.00000E+000	2.80000E-001	1.42715E-003	6	...........	-327.66
	286	57.4	2.70079E-001	-3.79371E-008	0.00000E+000	2.70000E-001	1.42907E-003	6	...........	-327.66
	287	57.6	2.60003E-001	-3.81741E-008	0.00000E+000	2.60000E-001	1.43149E-003	6	...........	-327.66
	288	57.8	2.50043E-001	-3.81947E-008	0.00000E+000	2.50000E-001	1.42392E-003	6	...........	-327.66
	289	58	2.40003E-001	-3.84389E-008	0.00000E+000	2.40000E-001	1.41902E-003	6	...........	-327.66
	290	58.2	2.29998E-001	-3.86109E-008	0.00000E+000	2.30000E-001	1.42519E-003	6	...........	-327.66
	291	58.4	2.20001E-001	-3.88101E-008	0.00000E+000	2.20000E-001	1.41960E-003	6	...........	-327.66
	292	58.6	2.10001E-001	-3.88998E-008	0.00000E+000	2.10000E-001	1.42469E-003	6	...........	-327.66
	293	58.8	2.00001E-001	-3.90437E-008	0.00000E+000	2.00000E-001	1.42348E-003	6	...........	-327.66
	294	59	1.90048E-001	-3.91998E-008	0.00000E+000	1.90000E-001	1.42917E-003	6	...........	-327.66
	295	59.2	1.80014E-001	-3.93817E-008	0.00000E+000	1.80000E-001	1.42945E-003	6	...........	-327.66
	296	59.4	1.70084E-001	-3.94255E-008	0.00000E+000	1.70000E-001	1.42594E-003	6	...........	-327.66
	297	59.6	1.60009E-001	-3.96112E-008	0.00000E+000	1.60000E-001	1.42519E-003	6	...........	-327.66
	298	59.8	1.50019E-001	-3.97537E-008	0.00000E+000	1.50000E-001	1.41852E-003	6	...........	-327.66
	299	60	1.40094E-001	-3.99221E-008	0.00000E+000	1.40000E-001	1.43229E-003	6	...........	-327.66
	300	60.2	1.30042E-001	-4.00013E-008	0.00000E+000	1.30000E-001	1.42579E-003	6	...........	-327.66
	301	60.4	1.20002E-001	-4.02351E-008	0.00000E+000	1.20000E-001	1.43416E-003	6	...........	-327.66
	302	60.6	1.10017E-001	-4.03190E-008	0.00000E+000	1.10000E-001	1.43154E-003	6	...........	-327.66
	303	60.8	1.00006E-001	-4.05393E-008	0.00000E+000	1.00000E-001	1.43117E-003	6	...........	-327.66
	304	61	9.01040E-002	-4.06031E-008	0.00000E+000	9.00000E-002	1.42957E-003	6	...........	-327.66
	305	61.2	7.99931E-002	-4.08222E-008	0.00000E+000	8.00000E-002	1.41308E-003	6	...........	-327.66
	306	61.4	7.00185E-002	-4.09833E-008	0.00000E+000	7.00000E-002	1.42290E-003	6	...........	-327.66
	307	61.6	6.00439E-002	-4.11336E-008	0.00000E+000	6.00000E-002	1.41677E-003	6	...........	-327.66
	308	61.8	5.00303E-002	-4.12545E-008	0.00000E+000	5.00000E-002	1.42874E-003	6	...........	-327.66
	309	62	4.00103E-002	-4.14498E-008	0.00000E+000	4.00000E-002	1.43250E-003	6	...........	-327.66
	310	62.2	3.00080E-002	-4.16059E-008	0.00000E+000	3.00000E-002	1.42305E-003	6	...........	-327.66
	311	62.4	2.00097E-002	-4.17989E-008	0.00000E+000	2.00000E-002	1.42385E-003	6	...........	-327.66
	312	62.6	1.00496E-002	-4.18804E-008	0.00000E+000	9.99999E-003	1.41620E-003	6	...........	-327.66
	313	62.8	-6.17726E-006	-4.21571E-008	0.00000E+000	-1.49012E-008	1.42047E-003	6	...........	-327.66
	314	63	-9.97052E-003	-4.22621E-008	0.00000E+000	-1.00000E-002	1.41867E-003	6	...........	-327.66
	315	63.2	-1.99561E-002	-4.25262E-008	0.00000E+000	-2.00000E-002	1.42645E-003	6	...........	-327.66
	316	63.4	-2.99639E-002	-4.26014E-008	0.00000E+000	-3.00000E-002	1.42549E-003	6	...........	-327.66
	317	63.6	-3.99471E-002	-4.29062E-008	0.00000E+000	-4.00000E-002	1.42612E-003	6	...........	-327.66
	318	63.8	-5.00023E-002	-4.30707E-008	0.00000E+000	-5.00000E-002	1.43652E-003	6	...........	-327.66
	319	64	-5.99831E-002	-4.33198E-008	0.00000E+000	-6.00000E-002	1.43022E-003	6	...........	-327.66
	320	64.2	-6.99473E-002	-4.34172E-008	0.00000E+000	-7.00000E-002	1.42384E-003	6	...........	-327.66
	321	64.4	-8.00067E-002	-4.36523E-008	0.00000E+000	-8.00000E-002	1.41665E-003	6	...........	-327.66
	322	64.6	-8.99558E-002	-4.38584E-008	0.00000E+000	-9.00000E-002	1.42677E-003	6	...........	-327.66
	323	64.8	-9.99856E-002	-4.40998E-008	0.00000E+000	-1.00000E-001	1.42674E-003	6	...........	-327.66
	324	65	-1.09967E-001	-4.42497E-008	0.00000E+000	-1.10000E-001	1.42792E-003	6	...........	-327.66
	325	65.2	-1.19985E-001	-4.45180E-008	0.00000E+000	-1.20000E-001	1.42604E-003	6	...........	-327.66
	326	65.4	-1.30009E-001	-4.47051E-008	0.00000E+000	-1.30000E-001	1.42819E-003	6	...........	-327.66
	327	65.6	-1.39953E-001	-4.50035E-008	0.00000E+000	-1.40000E-001	1.42130E-003	6	...........	-327.66
	328	65.8	-1.49994E-001	-4.51744E-008	0.00000E+000	-1.50000E-001	1.42689E-003	6	...........	-327.66
	329	66	-1.60001E-001	-4.54470E-008	0.00000E+000	-1.60000E-001	1.41520E-003	6	...........	-327.66
	330	66.2	-1.69961E-001	-4.57022E-008	0.00000E+000	-1.70000E-001	1.42774E-003	6	...........	-327.66
	331	66.4	-1.79994E-001	-4.60581E-008	0.00000E+000	-1.80000E-001	1.42485E-003	6	...........	-327.66
	332	66.6	-1.89880E-001	-4.63132E-008	0.00000E+000	-1.90000E-001	1.43352E-003	6	...........	-327.66
	333	66.8	-2.00011E-001	-4.66935E-008	0.00000E+000	-2.00000E-001	1.43317E-003	6	...........	-327.66
	334	67	-2.09983E-001	-4.69736E-008	0.00000E+000	-2.10000E-001	1.43137E-003	6	...........	-327.66
	335	67.2	-2.19895E-001	-4.73297E-008	0.00000E+000	-2.20000E-001	1.43651E-003	6	...........	-327.66
	336	67.4	-2.29953E-001	-4.76847E-008	0.00000E+000	-2.30000E-001	1.42117E-003	6	...........	-327.66
	337	67.6	-2.39997E-001	-4.81851E-008	0.00000E+000	-2.40000E-001	1.42080E-003	6	...........	-327.66
	338	67.8	-2.49977E-001	-4.86284E-008	0.00000E+000	-2.50000E-001	1.42669E-003	6	...........	-327.66
	339	68	-2.59982E-001	-4.90882E-008	0.00000E+000	-2.60000E-001	1.42333E-003	6	...........	-327.66
	340	68.2	-2.69913E-001	-4.95355E-008	0.00000E+000	-2.70000E-001	1.43077E-003	6	...........	-327.66
	341	68.4	-2.80006E-001	-5.00663E-008	0.00000E+000	-2.80000E-001	1.43984E-003	6	...........	-327.66
	342	68.6	-2.89962E-001	-5.06286E-008	0.00000E+000	-2.90000E-001	1.43567E-003	6	...........	-327.66
	343	68.8	-2.99969E-001	-5.11683E-008	0.00000E+000	-3.00000E-001	1.43879E-003	6	...........	-327.66
	344	69	-3.09963E-001	-5.16771E-008	0.00000E+000	-3.10000E-001	1.42715E-003	6	...........	-327.66
	345	69.2	-3.19996E-001	-5.23224E-008	0.00000E+000	-3.20000E-001	1.42672E-003	6	...........	-327.66
	346	69.4	-3.29990E-001	-5.28247E-008	0.00000E+000	-3.30000E-001	1.42810E-003	6	...........	-327.66
	347	69.6	-3.39991E-001	-5.34478E-008	0.00000E+000	-3.40000E-001	1.42554E-003	6	...........	-327.66
	348	69.8	-3.49956E-001	-5.38892E-008	0.00000E+000	-3.50000E-001	1.43294E-003	6	...........	-327.66
	349	70	-3.59995E-001	-5.45139E-008	0.00000E+000	-3.60000E-001	1.43409E-003	6	...........	-327.66
	350	70.2	-3.69877E-001	-5.49528E-008	0.00000E+000	-3.70000E-001	1.42910E-003	6	...........	-327.66
	351	70.4	-3.79983E-001	-5.55066E-008	0.00000E+000	-3.80000E-001	1.43841E-003	6	...........	-327.66
	352	70.6	-3.89959E-001	-5.59197E-008	0.00000E+000	-3.90000E-001	1.42755E-003	6	...........	-327.66
	353	70.8	-3.99978E-001	-5.63778E-008	0.00000E+000	-4.00000E-001	1.42950E-003	6	...........	-327.66
	354	71	-4.09975E-001	-5.68238E-008	0.00000E+000	-4.10000E-001	1.42939E-003	6	...........	-327.66
	355	71.2	-4.19963E-001	-5.72249E-008	0.00000E+000	-4.20000E-001	1.43742E-003	6	...........	-327.66
	356	71.4	-4.29952E-001	-5.76335E-008	0.00000E+000	-4.30000E-001	1.43471E-003	6	...........	-327.66
	357	71.6	-4.39989E-001	-5.80143E-008	0.00000E+000	-4.40000E-001	1.43581E-003	6	...........	-327.66
	358	71.8	-4.49916E-001	-5.84558E-008	0.00000E+000	-4.50000E-001	1.44036E-003	6	...........	-327.66
	359	72	-4.59963E-001	-5.89131E-008	0.00000E+000	-4.60000E-001	1.43644E-003	6	...........	-327.66
	360	72.2	-4.69824E-001	-5.92939E-008	0.00000E+000	-4.70000E-001	1.43220E-003	6	...........	-327.66
	361	72.4	-4.79946E-001	-5.97328E-008	0.00000E+000	-4.80000E-001	1.43024E-003	6	...........	-327.66
	362	72.6	-4.89959E-001	-6.01091E-008	0.00000E+000	-4.90000E-001	1.42510E-003	6	...........	-327.66
	363	72.8	-4.99876E-001	-6.05152E-008	0.00000E+000	-5.00000E-001	1.43832E-003	6	...........	-327.66
	364	73	-5.09918E-001	-6.08714E-008	0.00000E+000	-5.10000E-001	1.42919E-003	6	...........	-327.66
	365	73.2	-5.19992E-001	-6.13899E-008	0.00000E+000	-5.20000E-001	1.43052E-003	6	...........	-327.66
	366	73.4	-5.29943E-001	-6.16945E-008	0.00000E+000	-5.30000E-001	1.43426E-003	6	...........	-327.66
	367	73.6	-5.39969E-001	-6.21141E-008	0.00000E+000	-5.40000E-001	1.44469E-003	6	...........	-327.66
	368	73.8	-5.49816E-001	-6.24691E-008	0.00000E+000	-5.50000E-001	1.43462E-003	6	...........	-327.66
	369	74	-5.59973E-001	-6.28550E-008	0.00000E+000	-5.60000E-001	1.42362E-003	6	...........	-327.66
	370	74.2	-5.69921E-001	-6.32162E-008	0.00000E+000	-5.70000E-001	1.43551E-003	6	...........	-327.66
	371	74.4	-5.79870E-001	-6.35582E-008	0.00000E+000	-5.80000E-001	1.42877E-003	6	...........	-327.66
	372	74.6	-5.89922E-001	-6.37802E-008	0.00000E+000	-5.90000E-001	1.44414E-003	6	...........	-327.66
	373	74.8	-5.99923E-001	-6.41041E-008	0.00000E+000	-6.00000E-001	1.43462E-003	6	...........	-327.66
	374	75	-6.09930E-001	-6.44347E-008	0.00000E+000	-6.10000E-001	1.44144E-003	6	...........	-327.66
	375	75.2	-6.19956E-001	-6.46896E-008	0.00000E+000	-6.20000E-001	1.44232E-003	6	...........	-327.66
	376	75.4	-6.29845E-001	-6.47451E-008	0.00000E+000	-6.30000E-001	1.43032E-003	6	...........	-327.66
	377	75.6	-6.39960E-001	-6.50068E-008	0.00000E+000	-6.40000E-001	1.43072E-003	6	...........	-327.66
	378	75.8	-6.49775E-001	-6.51267E-008	0.00000E+000	-6.50000E-001	1.43274E-003	6	...........	-327.66
	379	76	-6.59870E-001	-6.52767E-008	0.00000E+000	-6.60000E-001	1.43986E-003	6	...........	-327.66
	380	76.2	-6.69798E-001	-6.49727E-008	0.00000E+000	-6.70000E-001	1.43514E-003	6	...........	-327.66
	381	76.4	-6.79837E-001	-6.48568E-008	0.00000E+000	-6.80000E-001	1.43637E-003	6	...........	-327.66
	382	76.6	-6.89882E-001	-6.43133E-008	0.00000E+000	-6.90000E-001	1.44172E-003	6	...........	-327.66
	383	76.8	-6.99949E-001	-6.36382E-008	0.00000E+000	-7.00000E-001	1.44106E-003	6	...........	-327.66
	384	77	-7.09834E-001	-6.24974E-008	0.00000E+000	-7.10000E-001	1.43127E-003	6	...........	-327.66
	385	77.2	-7.19967E-001	-6.12270E-008	0.00000E+000	-7.20000E-001	1.42227E-003	6	...........	-327.66
	386	77.4	-7.29855E-001	-5.96458E-008	0.00000E+000	-7.30000E-001	1.43557E-003	6	...........	-327.66
	387	77.6	-7.39934E-001	-5.79130E-008	0.00000E+000	-7.40000E-001	1.42865E-003	6	...........	-327.66
	388	77.8	-7.49842E-001	-5.58506E-008	0.00000E+000	-7.50000E-001	1.44191E-003	6	...........	-327.66
	389	78	-7.59896E-001	-5.36798E-008	0.00000E+000	-7.60000E-001	1.42960E-003	6	...........	-327.66
	390	78.2	-7.69889E-001	-5.12520E-008	0.00000E+000	-7.70000E-001	1.43809E-003	6	...........	-327.66
	391	78.4	-7.79854E-001	-4.87853E-008	0.00000E+000	-7.80000E-001	1.44042E-003	6	...........	-327.66
	392	78.6	-7.89890E-001	-4.62449E-008	0.00000E+000	-7.90000E-001	1.42647E-003	6	...........	-327.66
	393	78.8	-7.99965E-001	-4.38627E-008	0.00000E+000	-8.00000E-001	1.43065E-003	6	...........	-327.66
	394	79	-8.09848E-001	-4.12062E-008	0.00000E+000	-8.10000E-001	1.42827E-003	6	...........	-327.66
	395	79.2	-8.19903E-001	-3.88276E-008	0.00000E+000	-8.20000E-001	1.44719E-003	6	...........	-327.66
	396	79.4	-8.29754E-001	-3.67263E-008	0.00000E+000	-8.30000E-001	1.44041E-003	6	...........	-327.66
	397	79.6	-8.39916E-001	-3.47771E-008	0.00000E+000	-8.40000E-001	1.44029E-003	6	...........	-327.66
	398	79.8	-8.49874E-001	-3.27765E-008	0.00000E+000	-8.50000E-001	1.43389E-003	6	...........	-327.66
	399	80	-8.59837E-001	-3.12416E-008	0.00000E+000	-8.60000E-001	1.43451E-003	6	...........	-327.66
	400	80.2	-8.69892E-001	-2.95968E-008	0.00000E+000	-8.70000E-001	1.43165E-003	6	...........	-327.66
	401	80.4	-8.79936E-001	-2.81632E-008	0.00000E+000	-8.80000E-001	1.43159E-003	6	...........	-327.66
	402	80.6	-8.89902E-001	-2.69407E-008	0.00000E+000	-8.90000E-001	1.43781E-003	6	...........	-327.66
	403	80.8	-8.99962E-001	-2.59658E-008	0.00000E+000	-9.00000E-001	1.43511E-003	6	...........	-327.66
	404	81	-8.89960E-001	-2.20590E-008	0.00000E+000	-8.90000E-001	1.43174E-003	6	...........	-327.66
	405	81.2	-8.79989E-001	-2.00691E-008	0.00000E+000	-8.80000E-001	1.43024E-003	6	...........	-327.66
	406	81.4	-8.69978E-001	-1.84311E-008	0.00000E+000	-8.70000E-001	1.43147E-003	6	...........	-327.66
	407	81.6	-8.59893E-001	-1.70467E-008	0.00000E+000	-8.60000E-001	1.43587E-003	6	...........	-327.66
	408	81.8	-8.49956E-001	-1.56355E-008	0.00000E+000	-8.50000E-001	1.43544E-003	6	...........	-327.66
	409	82	-8.40004E-001	-1.43356E-008	0.00000E+000	-8.40000E-001	1.44077E-003	6	...........	-327.66
	410	82.2	-8.29852E-001	-1.28424E-008	0.00000E+000	-8.30000E-001	1.43999E-003	6	...........	-327.66
	411	82.4	-8.19991E-001	-1.13886E-008	0.00000E+000	-8.20000E-001	1.43069E-003	6	...........	-327.66
	412	82.6	-8.09906E-001	-9.73424E-009	0.00000E+000	-8.10000E-001	1.43250E-003	6	...........	-327.66
	413	82.8	-7.99964E-001	-7.94156E-009	0.00000E+000	-8.00000E-001	1.43254E-003	6	...........	-327.66
	414	83	-7.89943E-001	-5.80057E-009	0.00000E+000	-7.90000E-001	1.42517E-003	6	...........	-327.66
	415	83.2	-7.79959E-001	-3.47839E-009	0.00000E+000	-7.80000E-001	1.44214E-003	6	...........	-327.66
	416	83.4	-7.69963E-001	-7.18084E-010	0.00000E+000	-7.70000E-001	1.44344E-003	6	...........	-327.66
	417	83.6	-7.59970E-001	2.39257E-009	0.00000E+000	-7.60000E-001	1.44191E-003	6	...........	-327.66
	418	83.8	-7.49916E-001	5.90173E-009	0.00000E+000	-7.50000E-001	1.44496E-003	6	...........	-327.66
	419	84	-7.39994E-001	9.63962E-009	0.00000E+000	-7.40000E-001	1.43981E-003	6	...........	-327.66
	420	84.2	-7.29922E-001	1.38498E-008	0.00000E+000	-7.30000E-001	1.43927E-003	6	...........	-327.66
	421	84.4	-7.19993E-001	1.80007E-008	0.00000E+000	-7.20000E-001	1.43806E-003	6	...........	-327.66
	422	84.6	-7.09920E-001	2.18741E-008	0.00000E+000	-7.10000E-001	1.43464E-003	6	...........	-327.66
	423	84.8	-6.99965E-001	2.49533E-008	0.00000E+000	-7.00000E-001	1.44054E-003	6	...........	-327.66
	424	85	-6.89967E-001	2.72570E-008	0.00000E+000	-6.90000E-001	1.43547E-003	6	...........	-327.66
	425	85.2	-6.79932E-001	2.84123E-008	0.00000E+000	-6.80000E-001	1.44014E-003	6	...........	-327.66
	426	85.4	-6.69880E-001	2.86708E-008	0.00000E+000	-6.70000E-001	1.44464E-003	6	...........	-327.66
	427	85.6	-6.59972E-001	2.83238E-008	0.00000E+000	-6.60000E-001	1.43297E-003	6	...........	-327.66
	428	85.8	-6.49931E-001	2.79947E-008	0.00000E+000	-6.50000E-001	1.43594E-003	6	...........	-327.66
	429	86	-6.40002E-001	2.76744E-008	0.00000E+000	-6.40000E-001	1.43044E-003	6	...........	-327.66
	430	86.2	-6.29916E-001	2.76442E-008	0.00000E+000	-6.30000E-001	1.43280E-003	6	...........	-327.66
	431	86.4	-6.19990E-001	2.74639E-008	0.00000E+000	-6.20000E-001	1.43706E-003	6	...........	-327.66
	432	86.6	-6.10004E-001	2.74576E-008	0.00000E+000	-6.10000E-001	1.44372E-003	6	...........	-327.66
	433	86.8	-6.00016E-001	2.76088E-008	0.00000E+000	-6.00000E-001	1.44564E-003	6	...........	-327.66
	434	87	-5.89976E-001	2.77585E-008	0.00000E+000	-5.90000E-001	1.43601E-003	6	...........	-327.66
	435	87.2	-5.79937E-001	2.78833E-008	0.00000E+000	-5.80000E-001	1.42962E-003	6	...........	-327.66
	436	87.4	-5.69977E-001	2.81177E-008	0.00000E+000	-5.70000E-001	1.42824E-003	6	...........	-327.66
	437	87.6	-5.60024E-001	2.84135E-008	0.00000E+000	-5.60000E-001	1.42960E-003	6	...........	-327.66
	438	87.8	-5.49883E-001	2.87174E-008	0.00000E+000	-5.50000E-001	1.42874E-003	6	...........	-327.66
	439	88	-5.40008E-001	2.90133E-008	0.00000E+000	-5.40000E-001	1.43914E-003	6	...........	-327.66
	440	88.2	-5.29988E-001	2.93833E-008	0.00000E+000	-5.30000E-001	1.44076E-003	6	...........	-327.66
	441	88.4	-5.20053E-001	2.97016E-008	0.00000E+000	-5.20000E-001	1.43461E-003	6	...........	-327.66
	442	88.6	-5.09969E-001	3.01920E-008	0.00000E+000	-5.10000E-001	1.42730E-003	6	...........	-327.66
	443	88.8	-4.99915E-001	3.05902E-008	0.00000E+000	-5.00000E-001	1.44643E-003	6	...........	-327.66
	444	89	-4.90002E-001	3.10936E-008	0.00000E+000	-4.90000E-001	1.42894E-003	6	...........	-327.66
	445	89.2	-4.79989E-001	3.14913E-008	0.00000E+000	-4.80000E-001	1.42295E-003	6	...........	-327.66
	446	89.4	-4.69892E-001	3.20364E-008	0.00000E+000	-4.70000E-001	1.43681E-003	6	...........	-327.66
	447	89.6	-4.60000E-001	3.25023E-008	0.00000E+000	-4.60000E-001	1.43492E-003	6	...........	-327.66
	448	89.8	-4.49971E-001	3.30982E-008	0.00000E+000	-4.50000E-001	1.43857E-003	6	...........	-327.66
	449	90	-4.40015E-001	3.36639E-008	0.00000E+000	-4.40000E-001	1.43544E-003	6	...........	-327.66
	450	90.2	-4.30001E-001	3.42381E-008	0.00000E+000	-4.30000E-001	1.43350E-003	6	...........	-327.66
	451	90.4	-4.20005E-001	3.47892E-008	0.00000E+000	-4.20000E-001	1.43472E-003	6	...........	-327.66
	452	90.6	-4.10010E-001	3.54352E-008	0.00000E+000	-4.10000E-001	1.42894E-003	6	...........	-327.66
	453	90.8	-3.99991E-001	3.61139E-008	0.00000E+000	-4.00000E-001	1.43120E-003	6	...........	-327.66
	454	91	-3.89952E-001	3.66827E-008	0.00000E+000	-3.90000E-001	1.42392E-003	6	...........	-327.66
	455	91.2	-3.80014E-001	3.71818E-008	0.00000E+000	-3.80000E-001	1.43652E-003	6	...........	-327.66
	456	91.4	-3.69935E-001	3.78985E-008	0.00000E+000	-3.70000E-001	1.43522E-003	6	...........	-327.66
	457	91.6	-3.60023E-001	3.84485E-008	0.00000E+000	-3.60000E-001	1.44051E-003	6	...........	-327.66
	458	91.8	-3.50008E-001	3.91304E-008	0.00000E+000	-3.50000E-001	1.42917E-003	6	...........	-327.66
	459	92	-3.40019E-001	3.96285E-008	0.00000E+000	-3.40000E-001	1.43571E-003	6	...........	-327.66
	460	92.2	-3.30025E-001	4.02961E-008	0.00000E+000	-3.30000E-001	1.42809E-003	6	...........	-327.66
	461	92.4	-3.20024E-001	4.08094E-008	0.00000E+000	-3.20000E-001	1.43190E-003	6	...........	-327.66
	462	92.6	-3.10008E-001	4.14552E-008	0.00000E+000	-3.10000E-001	1.42935E-003	6	...........	-327.66
	463	92.8	-3.00008E-001	4.19051E-008	0.00000E+000	-3.00000E-001	1.43102E-003	6	...........	-327.66
	464	93	-2.89994E-001	4.24248E-008	0.00000E+000	-2.90000E-001	1.43477E-003	6	...........	-327.66
	465	93.2	-2.80025E-001	4.29212E-008	0.00000E+000	-2.80000E-001	1.43689E-003	6	...........	-327.66
	466	93.4	-2.69965E-001	4.35101E-008	0.00000E+000	-2.70000E-001	1.44147E-003	6	...........	-327.66
	467	93.6	-2.60012E-001	4.38598E-008	0.00000E+000	-2.60000E-001	1.42772E-003	6	...........	-327.66
	468	93.8	-2.50021E-001	4.43619E-008	0.00000E+000	-2.50000E-001	1.43604E-003	6	...........	-327.66
	469	94	-2.40027E-001	4.48119E-008	0.00000E+000	-2.40000E-001	1.42604E-003	6	...........	-327.66
	470	94.2	-2.30009E-001	4.53144E-008	0.00000E+000	-2.30000E-001	1.42880E-003	6	...........	-327.66
	471	94.4	-2.19948E-001	4.56313E-008	0.00000E+000	-2.20000E-001	1.44266E-003	6	...........	-327.66
	472	94.6	-2.09998E-001	4.60535E-008	0.00000E+000	-2.10000E-001	1.44528E-003	6	...........	-327.66
	473	94.8	-2.00061E-001	4.63357E-008	0.00000E+000	-2.00000E-001	1.44704E-003	6	...........	-327.66
	474	95	-1.89926E-001	4.67420E-008	0.00000E+000	-1.90000E-001	1.44334E-003	6	...........	-327.66
	475	95.2	-1.80020E-001	4.70275E-008	0.00000E+000	-1.80000E-001	1.43532E-003	6	...........	-327.66
	476	95.4	-1.70027E-001	4.73408E-008	0.00000E+000	-1.70000E-001	1.42922E-003	6	...........	-327.66
	477	95.6	-1.60053E-001	4.75286E-008	0.00000E+000	-1.60000E-001	1.43849E-003	6	...........	-327.66
	478	95.8	-1.50038E-001	4.78324E-008	0.00000E+000	-1.50000E-001	1.43214E-003	6	...........	-327.66
	479	96	-1.40001E-001	4.80917E-008	0.00000E+000	-1.40000E-001	1.43429E-003	6	...........	-327.66
	480	96.2	-1.30028E-001	4.83799E-008	0.00000E+000	-1.30000E-001	1.44501E-003	6	...........	-327.66
	481	96.4	-1.20038E-001	4.86228E-008	0.00000E+000	-1.20000E-001	1.43681E-003	6	...........	-327.66
	482	96.6	-1.10012E-001	4.87922E-008	0.00000E+000	-1.10000E-001	1.44227E-003	6	...........	-327.66
	483	96.8	-1.00018E-001	4.89253E-008	0.00000E+000	-1.00000E-001	1.43451E-003	6	...........	-327.66
	484	97	-9.00168E-002	4.92578E-008	0.00000E+000	-9.00000E-002	1.43469E-003	6	...........	-327.66
	485	97.2	-8.00289E-002	4.94435E-008	0.00000E+000	-8.00000E-002	1.42247E-003	6	...........	-327.66
	486	97.4	-7.00093E-002	4.95855E-008	0.00000E+000	-7.00000E-002	1.44009E-003	6	...........	-327.66
	487	97.6	-6.00184E-002	4.96091E-008	0.00000E+000	-6.00000E-002	1.44012E-003	6	...........	-327.66
	488	97.8	-5.00392E-002	4.98493E-008	0.00000E+000	-5.00000E-002	1.44267E-003	6	...........	-327.66
	489	98	-3.99900E-002	5.01495E-008	0.00000E+000	-4.00000E-002	1.44262E-003	6	...........	-327.66
	490	98.2	-2.99930E-002	5.03495E-008	0.00000E+000	-3.00000E-002	1.43205E-003	6	...........	-327.66
	491	98.4	-2.00020E-002	5.02380E-008	0.00000E+000	-2.00000E-002	1.44151E-003	6	...........	-327.66
	492	98.6	-1.00066E-002	5.04441E-008	0.00000E+000	-1.00000E-002	1.43486E-003	6	...........	-327.66
	493	98.8	-2.67424E-005	5.06678E-008	0.00000E+000	-1.49012E-008	1.43037E-003	6	...........	-327.66
	494	99	1.00189E-002	5.09180E-008	0.00000E+000	9.99999E-003	1.43701E-003	6	...........	-327.66
	495	99.2	1.99924E-002	5.09384E-008	0.00000E+000	2.00000E-002	1.42945E-003	6	...........	-327.66
	496	99.4	2.99938E-002	5.08470E-008	0.00000E+000	3.00000E-002	1.44312E-003	6	...........	-327.66
	497	99.6	3.97694E-002	5.12087E-008	0.00000E+000	4.00000E-002	1.43791E-003	6	...........	-327.66
	498	99.8	5.00330E-002	5.13428E-008	0.00000E+000	5.00000E-002	1.45059E-003	6	...........	-327.66
	499	100	6.00190E-002	5.14505E-008	0.00000E+000	6.00000E-002	1.43457E-003	6	...........	-327.66
	500	100.2	7.00019E-002	5.14567E-008	0.00000E+000	7.00000E-002	1.43759E-003	6	...........	-327.66
	501	100.4	7.99748E-002	5.16415E-008	0.00000E+000	8.00000E-002	1.42318E-003	6	...........	-327.66
	502	100.6	9.01233E-002	5.18907E-008	0.00000E+000	9.00000E-002	1.43072E-003	6	...........	-327.66
	503	100.8	9.99820E-002	5.20072E-008	0.00000E+000	1.00000E-001	1.44939E-003	6	...........	-327.66
	504	101	1.09987E-001	5.22500E-008	0.00000E+000	1.10000E-001	1.43776E-003	6	...........	-327.66
	505	101.2	1.19990E-001	5.23919E-008	0.00000E+000	1.20000E-001	1.43060E-003	6	...........	-327.66
	506	101.4	1.30011E-001	5.26841E-008	0.00000E+000	1.30000E-001	1.43669E-003	6	...........	-327.66
	507	101.6	1.40057E-001	5.28159E-008	0.00000E+000	1.40000E-001	1.44247E-003	6	...........	-327.66
	508	101.8	1.50001E-001	5.30421E-008	0.00000E+000	1.50000E-001	1.43330E-003	6	...........	-327.66
	509	102	1.59977E-001	5.32700E-008	0.00000E+000	1.60000E-001	1.42640E-003	6	...........	-327.66
	510	102.2	1.70059E-001	5.35150E-008	0.00000E+000	1.70000E-001	1.43661E-003	6	...........	-327.66
	511	102.4	1.79982E-001	5.36511E-008	0.00000E+000	1.80000E-001	1.43947E-003	6	...........	-327.66
	512	102.6	1.89992E-001	5.38778E-008	0.00000E+000	1.90000E-001	1.43796E-003	6	...........	-327.66
	513	102.8	1.99979E-001	5.41121E-008	0.00000E+000	2.00000E-001	1.43115E-003	6	...........	-327.66
	514	103	2.09973E-001	5.43551E-008	0.00000E+000	2.10000E-001	1.43956E-003	6	...........	-327.66
	515	103.2	2.19935E-001	5.44927E-008	0.00000E+000	2.20000E-001	1.43105E-003	6	...........	-327.66
	516	103.4	2.29985E-001	5.47098E-008	0.00000E+000	2.30000E-001	1.44186E-003	6	...........	-327.66
	517	103.6	2.39962E-001	5.49502E-008	0.00000E+000	2.40000E-001	1.42559E-003	6	...........	-327.66
	518	103.8	2.50003E-001	5.52184E-008	0.00000E+000	2.50000E-001	1.43045E-003	6	...........	-327.66
	519	104	2.59973E-001	5.52793E-008	0.00000E+000	2.60000E-001	1.44643E-003	6	...........	-327.66
	520	104.2	2.69991E-001	5.56157E-008	0.00000E+000	2.70000E-001	1.42994E-003	6	...........	-327.66
	521	104.4	2.79960E-001	5.58061E-008	0.00000E+000	2.80000E-001	1.43821E-003	6	...........	-327.66
	522	104.6	2.89964E-001	5.61403E-008	0.00000E+000	2.90000E-001	1.42940E-003	6	...........	-327.66
	523	104.8	2.99976E-001	5.62653E-008	0.00000E+000	3.00000E-001	1.43836E-003	6	...........	-327.66
	524	105	3.09978E-001	5.65772E-008	0.00000E+000	3.10000E-001	1.43487E-003	6	...........	-327.66
	525	105.2	3.19973E-001	5.68223E-008	0.00000E+000	3.20000E-001	1.42427E-003	6	...........	-327.66
	526	105.4	3.29988E-001	5.71560E-008	0.00000E+000	3.30000E-001	1.42804E-003	6	...........	-327.66
	527	105.6	3.39981E-001	5.73338E-008	0.00000E+000	3.40000E-001	1.43781E-003	6	...........	-327.66
	528	105.8	3.50005E-001	5.76280E-008	0.00000E+000	3.50000E-001	1.44319E-003	6	...........	-327.66
	529	106	3.59946E-001	5.79706E-008	0.00000E+000	3.60000E-001	1.43784E-003	6	...........	-327.66
	530	106.2	3.69971E-001	5.83348E-008	0.00000E+000	3.70000E-001	1.42640E-003	6	...........	-327.66
	531	106.4	3.79977E-001	5.85706E-008	0.00000E+000	3.80000E-001	1.43184E-003	6	...........	-327.66
	532	106.6	3.89969E-001	5.88796E-008	0.00000E+000	3.90000E-001	1.43419E-003	6	...........	-327.66
	533	106.8	3.99951E-001	5.92811E-008	0.00000E+000	4.00000E-001	1.43170E-003	6	...........	-327.66
	534	107	4.09964E-001	5.96494E-008	0.00000E+000	4.10000E-001	1.42237E-003	6	...........	-327.66
	535	107.2	4.19981E-001	5.99862E-008	0.00000E+000	4.20000E-001	1.43484E-003	6	...........	-327.66
	536	107.4	4.29979E-001	6.03512E-008	0.00000E+000	4.30000E-001	1.44122E-003	6	...........	-327.66
	537	107.6	4.39922E-001	6.07448E-008	0.00000E+000	4.40000E-001	1.43757E-003	6	...........	-327.66
	538	107.8	4.49975E-001	6.12728E-008	0.00000E+000	4.50000E-001	1.43057E-003	6	...........	-327.66
	539	108	4.59966E-001	6.16298E-008	0.00000E+000	4.60000E-001	1.43362E-003	6	...........	-327.66
	540	108.2	4.69949E-001	6.21306E-008	0.00000E+000	4.70000E-001	1.43162E-003	6	...........	-327.66
	541	108.4	4.79948E-001	6.26098E-008	0.00000E+000	4.80000E-001	1.42859E-003	6	...........	-327.66
	542	108.6	4.89953E-001	6.31675E-008	0.00000E+000	4.90000E-001	1.42687E-003	6	...........	-327.66
	543	108.8	4.99978E-001	6.37215E-008	0.00000E+000	5.00000E-001	1.43494E-003	6	...........	-327.66
	544	109	5.09966E-001	6.42764E-008	0.00000E+000	5.10000E-001	1.43556E-003	6	...........	-327.66
	545	109.2	5.19944E-001	6.49061E-008	0.00000E+000	5.20000E-001	1.43452E-003	6	...........	-327.66
	546	109.4	5.29986E-001	6.56010E-008	0.00000E+000	5.30000E-001	1.43434E-003	6	...........	-327.66
	547	109.6	5.39976E-001	6.63124E-008	0.00000E+000	5.40000E-001	1.42622E-003	6	...........	-327.66
	548	109.8	5.49967E-001	6.71228E-008	0.00000E+000	5.50000E-001	1.43014E-003	6	...........	-327.66
	549	110	5.59957E-001	6.80196E-008	0.00000E+000	5.60000E-001	1.42308E-003	6	...........	-327.66
	550	110.2	5.69959E-001	6.90109E-008	0.00000E+000	5.70000E-001	1.43285E-003	6	...........	-327.66
	551	110.4	5.79973E-001	7.01006E-008	0.00000E+000	5.80000E-001	1.43967E-003	6	...........	-327.66
	552	110.6	5.89955E-001	7.13991E-008	0.00000E+000	5.90000E-001	1.44101E-003	6	...........	-327.66
	553	110.8	5.99955E-001	7.27919E-008	0.00000E+000	6.00000E-001	1.43182E-003	6	...........	-327.66
CURVE3	TABLE
	Pt	T	Vf	Im	Vu	Sig	Ach	IERange	Over	Temp
	#	s	V vs. Ref.	A	V	V	V	#	bits	deg C
	554	111	5.89980E-001	-8.28003E-009	0.00000E+000	5.90000E-001	1.44099E-003	6	...........	-327.66
	555	111.2	5.79992E-001	-1.52344E-008	0.00000E+000	5.80000E-001	1.44893E-003	6	...........	-327.66
	556	111.4	5.69980E-001	-1.94891E-008	0.00000E+000	5.70000E-001	1.42635E-003	6	...........	-327.66
	557	111.6	5.59955E-001	-2.25602E-008	0.00000E+000	5.60000E-001	1.42979E-003	6	...........	-327.66
	558	111.8	5.49986E-001	-2.47988E-008	0.00000E+000	5.50000E-001	1.43644E-003	6	...........	-327.66
	559	112	5.39995E-001	-2.65616E-008	0.00000E+000	5.40000E-001	1.43352E-003	6	...........	-327.66
	560	112.2	5.30002E-001	-2.78798E-008	0.00000E+000	5.30000E-001	1.43799E-003	6	...........	-327.66
	561	112.4	5.19980E-001	-2.89814E-008	0.00000E+000	5.20000E-001	1.43742E-003	6	...........	-327.66
	562	112.6	5.09965E-001	-2.99203E-008	0.00000E+000	5.10000E-001	1.43949E-003	6	...........	-327.66
	563	112.8	5.00005E-001	-3.06663E-008	0.00000E+000	5.00000E-001	1.43249E-003	6	...........	-327.66
	564	113	4.89969E-001	-3.13749E-008	0.00000E+000	4.90000E-001	1.42567E-003	6	...........	-327.66
	565	113.2	4.79965E-001	-3.19802E-008	0.00000E+000	4.80000E-001	1.42590E-003	6	...........	-327.66
	566	113.4	4.69969E-001	-3.24479E-008	0.00000E+000	4.70000E-001	1.42637E-003	6	...........	-327.66
	567	113.6	4.59994E-001	-3.30013E-008	0.00000E+000	4.60000E-001	1.42985E-003	6	...........	-327.66
	568	113.8	4.50025E-001	-3.33485E-008	0.00000E+000	4.50000E-001	1.43834E-003	6	...........	-327.66
	569	114	4.39938E-001	-3.37973E-008	0.00000E+000	4.40000E-001	1.43424E-003	6	...........	-327.66
	570	114.2	4.29990E-001	-3.41193E-008	0.00000E+000	4.30000E-001	1.43392E-003	6	...........	-327.66
	571	114.4	4.20039E-001	-3.44446E-008	0.00000E+000	4.20000E-001	1.43162E-003	6	...........	-327.66
	572	114.6	4.09976E-001	-3.47168E-008	0.00000E+000	4.10000E-001	1.42177E-003	6	...........	-327.66
	573	114.8	3.99965E-001	-3.50356E-008	0.00000E+000	4.00000E-001	1.43902E-003	6	...........	-327.66
	574	115	3.89987E-001	-3.53805E-008	0.00000E+000	3.90000E-001	1.43736E-003	6	...........	-327.66
	575	115.2	3.79997E-001	-3.56148E-008	0.00000E+000	3.80000E-001	1.43807E-003	6	...........	-327.66
	576	115.4	3.70029E-001	-3.58069E-008	0.00000E+000	3.70000E-001	1.43911E-003	6	...........	-327.66
	577	115.6	3.59947E-001	-3.60800E-008	0.00000E+000	3.60000E-001	1.43340E-003	6	...........	-327.66
	578	115.8	3.50019E-001	-3.63562E-008	0.00000E+000	3.50000E-001	1.44094E-003	6	...........	-327.66
	579	116	3.40010E-001	-3.65654E-008	0.00000E+000	3.40000E-001	1.43874E-003	6	...........	-327.66
	580	116.2	3.30018E-001	-3.67004E-008	0.00000E+000	3.30000E-001	1.43212E-003	6	...........	-327.66
	581	116.4	3.19987E-001	-3.69754E-008	0.00000E+000	3.20000E-001	1.43095E-003	6	...........	-327.66
	582	116.6	3.09992E-001	-3.71101E-008	0.00000E+000	3.10000E-001	1.43304E-003	6	...........	-327.66
	583	116.8	2.99998E-001	-3.74058E-008	0.00000E+000	3.00000E-001	1.43496E-003	6	...........	-327.66
	584	117	2.90007E-001	-3.74295E-008	0.00000E+000	2.90000E-001	1.43275E-003	6	...........	-327.66
	585	117.2	2.79980E-001	-3.76875E-008	0.00000E+000	2.80000E-001	1.44416E-003	6	...........	-327.66
	586	117.4	2.70083E-001	-3.78182E-008	0.00000E+000	2.70000E-001	1.43324E-003	6	...........	-327.66
	587	117.6	2.60003E-001	-3.80538E-008	0.00000E+000	2.60000E-001	1.43749E-003	6	...........	-327.66
	588	117.8	2.50044E-001	-3.80830E-008	0.00000E+000	2.50000E-001	1.43242E-003	6	...........	-327.66
	589	118	2.40003E-001	-3.83479E-008	0.00000E+000	2.40000E-001	1.43235E-003	6	...........	-327.66
	590	118.2	2.30001E-001	-3.85077E-008	0.00000E+000	2.30000E-001	1.43799E-003	6	...........	-327.66
	591	118.4	2.20002E-001	-3.87077E-008	0.00000E+000	2.20000E-001	1.42647E-003	6	...........	-327.66
	592	118.6	2.10001E-001	-3.88140E-008	0.00000E+000	2.10000E-001	1.44027E-003	6	...........	-327.66
	593	118.8	2.00000E-001	-3.90125E-008	0.00000E+000	2.00000E-001	1.43299E-003	6	...........	-327.66
	594	119	1.90051E-001	-3.91259E-008	0.00000E+000	1.90000E-001	1.44436E-003	6	...........	-327.66
	595	119.2	1.80015E-001	-3.93398E-008	0.00000E+000	1.80000E-001	1.43726E-003	6	...........	-327.66
	596	119.4	1.70101E-001	-3.94578E-008	0.00000E+000	1.70000E-001	1.43992E-003	6	...........	-327.66
	597	119.6	1.60012E-001	-3.96647E-008	0.00000E+000	1.60000E-001	1.43322E-003	6	...........	-327.66
	598	119.8	1.50026E-001	-3.97933E-008	0.00000E+000	1.50000E-001	1.43497E-003	6	...........	-327.66
	599	120	1.40098E-001	-3.99704E-008	0.00000E+000	1.40000E-001	1.44364E-003	6	...........	-327.66
	600	120.2	1.30053E-001	-4.00612E-008	0.00000E+000	1.30000E-001	1.43699E-003	6	...........	-327.66
	601	120.4	1.20007E-001	-4.03039E-008	0.00000E+000	1.20000E-001	1.43714E-003	6	...........	-327.66
	602	120.6	1.10021E-001	-4.03938E-008	0.00000E+000	1.10000E-001	1.44127E-003	6	...........	-327.66
	603	120.8	1.00008E-001	-4.05844E-008	0.00000E+000	1.00000E-001	1.44086E-003	6	...........	-327.66
	604	121	9.01094E-002	-4.06998E-008	0.00000E+000	9.00000E-002	1.43924E-003	6	...........	-327.66
	605	121.2	7.99953E-002	-4.08808E-008	0.00000E+000	8.00000E-002	1.42874E-003	6	...........	-327.66
	606	121.4	7.00219E-002	-4.10366E-008	0.00000E+000	7.00000E-002	1.43292E-003	6	...........	-327.66
	607	121.6	6.00490E-002	-4.12094E-008	0.00000E+000	6.00000E-002	1.43057E-003	6	...........	-327.66
	608	121.8	5.00349E-002	-4.12761E-008	0.00000E+000	5.00000E-002	1.43764E-003	6	...........	-327.66
	609	122	4.00133E-002	-4.14717E-008	0.00000E+000	4.00000E-002	1.42695E-003	6	...........	-327.66
	610	122.2	3.00096E-002	-4.16624E-008	0.00000E+000	3.00000E-002	1.45216E-003	6	...........	-327.66
	611	122.4	2.00110E-002	-4.18171E-008	0.00000E+000	2.00000E-002	1.44164E-003	6	...........	-327.66
	612	122.6	1.00573E-002	-4.19205E-008	0.00000E+000	9.99999E-003	1.42674E-003	6	...........	-327.66
	613	122.8	-2.72610E-006	-4.21510E-008	0.00000E+000	-1.49012E-008	1.42859E-003	6	...........	-327.66
	614	123	-9.95283E-003	-4.22491E-008	0.00000E+000	-1.00000E-002	1.43761E-003	6	...........	-327.66
	615	123.2	-1.99503E-002	-4.25197E-008	0.00000E+000	-2.00000E-002	1.44406E-003	6	...........	-327.66
	616	123.4	-2.99560E-002	-4.25621E-008	0.00000E+000	-3.00000E-002	1.43324E-003	6	...........	-327.66
	617	123.6	-3.99397E-002	-4.28202E-008	0.00000E+000	-4.00000E-002	1.44224E-003	6	...........	-327.66
	618	123.8	-4.99956E-002	-4.29822E-008	0.00000E+000	-5.00000E-002	1.43626E-003	6	...........	-327.66
	619	124	-5.99790E-002	-4.32133E-008	0.00000E+000	-6.00000E-002	1.44524E-003	6	...........	-327.66
	620	124.2	-6.99323E-002	-4.33187E-008	0.00000E+000	-7.00000E-002	1.43472E-003	6	...........	-327.66
	621	124.4	-8.00013E-002	-4.35533E-008	0.00000E+000	-8.00000E-002	1.43159E-003	6	...........	-327.66
	622	124.6	-8.99495E-002	-4.37228E-008	0.00000E+000	-9.00000E-002	1.43612E-003	6	...........	-327.66
	623	124.8	-9.99822E-002	-4.39336E-008	0.00000E+000	-1.00000E-001	1.42832E-003	6	...........	-327.66
	624	125	-1.09955E-001	-4.40790E-008	0.00000E+000	-1.10000E-001	1.43847E-003	6	...........	-327.66
	625	125.2	-1.19977E-001	-4.43185E-008	0.00000E+000	-1.20000E-001	1.43966E-003	6	...........	-327.66
	626	125.4	-1.30003E-001	-4.45305E-008	0.00000E+000	-1.30000E-001	1.44428E-003	6	...........	-327.66
	627	125.6	-1.39950E-001	-4.47715E-008	0.00000E+000	-1.40000E-001	1.44571E-003	6	...........	-327.66
	628	125.8	-1.49991E-001	-4.50075E-008	0.00000E+000	-1.50000E-001	1.42230E-003	6	...........	-327.66
	629	126	-1.60000E-001	-4.52451E-008	0.00000E+000	-1.60000E-001	1.43245E-003	6	...........	-327.66
	630	126.2	-1.69956E-001	-4.54883E-008	0.00000E+000	-1.70000E-001	1.42904E-003	6	...........	-327.66
	631	126.4	-1.79993E-001	-4.58328E-008	0.00000E+000	-1.80000E-001	1.43776E-003	6	...........	-327.66
	632	126.6	-1.89876E-001	-4.60698E-008	0.00000E+000	-1.90000E-001	1.44149E-003	6	...........	-327.66
	633	126.8	-2.00005E-001	-4.64472E-008	0.00000E+000	-2.00000E-001	1.44419E-003	6	...........	-327.66
	634	127	-2.09976E-001	-4.67247E-008	0.00000E+000	-2.10000E-001	1.44443E-003	6	...........	-327.66
	635	127.2	-2.19888E-001	-4.70727E-008	0.00000E+000	-2.20000E-001	1.43362E-003	6	...........	-327.66
	636	127.4	-2.29943E-001	-4.74278E-008	0.00000E+000	-2.30000E-001	1.43040E-003	6	...........	-327.66
	637	127.6	-2.39995E-001	-4.78802E-008	0.00000E+000	-2.40000E-001	1.42970E-003	6	...........	-327.66
	638	127.8	-2.49969E-001	-4.83029E-008	0.00000E+000	-2.50000E-001	1.44157E-003	6	...........	-327.66
	639	128	-2.59981E-001	-4.87880E-008	0.00000E+000	-2.60000E-001	1.43305E-003	6	...........	-327.66
	640	128.2	-2.69910E-001	-4.91907E-008	0.00000E+000	-2.70000E-001	1.44156E-003	6	...........	-327.66
	641	128.4	-2.80003E-001	-4.97648E-008	0.00000E+000	-2.80000E-001	1.43756E-003	6	...........	-327.66
	642	128.6	-2.89957E-001	-5.02530E-008	0.00000E+000	-2.90000E-001	1.43239E-003	6	...........	-327.66
	643	128.8	-2.99965E-001	-5.08260E-008	0.00000E+000	-3.00000E-001	1.44291E-003	6	...........	-327.66
	644	129	-3.09958E-001	-5.13064E-008	0.00000E+000	-3.10000E-001	1.42922E-003	6	...........	-327.66
	645	129.2	-3.19997E-001	-5.19129E-008	0.00000E+000	-3.20000E-001	1.43839E-003	6	...........	-327.66
	646	129.4	-3.29989E-001	-5.24055E-008	0.00000E+000	-3.30000E-001	1.43257E-003	6	...........	-327.66
	647	129.6	-3.39990E-001	-5.30032E-008	0.00000E+000	-3.40000E-001	1.44047E-003	6	...........	-327.66
	648	129.8	-3.49949E-001	-5.34236E-008	0.00000E+000	-3.50000E-001	1.44164E-003	6	...........	-327.66
	649	130	-3.59993E-001	-5.39494E-008	0.00000E+000	-3.60000E-001	1.43997E-003	6	...........	-327.66
	650	130.2	-3.69857E-001	-5.43940E-008	0.00000E+000	-3.70000E-001	1.43872E-003	6	...........	-327.66
	651	130.4	-3.79980E-001	-5.49117E-008	0.00000E+000	-3.80000E-001	1.43936E-003	6	...........	-327.66
	652	130.6	-3.89954E-001	-5.52958E-008	0.00000E+000	-3.90000E-001	1.43871E-003	6	...........	-327.66
	653	130.8	-3.99970E-001	-5.57682E-008	0.00000E+000	-4.00000E-001	1.43274E-003	6	...........	-327.66
	654	131	-4.09970E-001	-5.61730E-008	0.00000E+000	-4.10000E-001	1.44336E-003	6	...........	-327.66
	655	131.2	-4.19959E-001	-5.65791E-008	0.00000E+000	-4.20000E-001	1.44322E-003	6	...........	-327.66
	656	131.4	-4.29945E-001	-5.69309E-008	0.00000E+000	-4.30000E-001	1.44691E-003	6	...........	-327.66
	657	131.6	-4.39984E-001	-5.73553E-008	0.00000E+000	-4.40000E-001	1.44589E-003	6	...........	-327.66
	658	131.8	-4.49911E-001	-5.77269E-008	0.00000E+000	-4.50000E-001	1.44144E-003	6	...........	-327.66
	659	132	-4.59961E-001	-5.81562E-008	0.00000E+000	-4.60000E-001	1.44246E-003	6	...........	-327.66
	660	132.2	-4.69831E-001	-5.84776E-008	0.00000E+000	-4.70000E-001	1.43666E-003	6	...........	-327.66
	661	132.4	-4.79941E-001	-5.89057E-008	0.00000E+000	-4.80000E-001	1.42662E-003	6	...........	-327.66
	662	132.6	-4.89951E-001	-5.92365E-008	0.00000E+000	-4.90000E-001	1.43941E-003	6	...........	-327.66
	663	132.8	-4.99868E-001	-5.96652E-008	0.00000E+000	-5.00000E-001	1.44081E-003	6	...........	-327.66
	664	133	-5.09906E-001	-5.99668E-008	0.00000E+000	-5.10000E-001	1.45004E-003	6	...........	-327.66
	665	133.2	-5.19989E-001	-6.03748E-008	0.00000E+000	-5.20000E-001	1.43442E-003	6	...........	-327.66
	666	133.4	-5.29937E-001	-6.06967E-008	0.00000E+000	-5.30000E-001	1.44122E-003	6	...........	-327.66
	667	133.6	-5.39969E-001	-6.11026E-008	0.00000E+000	-5.40000E-001	1.43914E-003	6	...........	-327.66
	668	133.8	-5.49821E-001	-6.13917E-008	0.00000E+000	-5.50000E-001	1.43384E-003	6	...........	-327.66
	669	134	-5.59969E-001	-6.17283E-008	0.00000E+000	-5.60000E-001	1.43846E-003	6	...........	-327.66
	670	134.2	-5.69906E-001	-6.20562E-008	0.00000E+000	-5.70000E-001	1.43779E-003	6	...........	-327.66
	671	134.4	-5.79865E-001	-6.23456E-008	0.00000E+000	-5.80000E-001	1.43512E-003	6	...........	-327.66
	672	134.6	-5.89906E-001	-6.25628E-008	0.00000E+000	-5.90000E-001	1.43992E-003	6	...........	-327.66
	673	134.8	-5.99926E-001	-6.28324E-008	0.00000E+000	-6.00000E-001	1.44706E-003	6	...........	-327.66
	674	135	-6.09928E-001	-6.31462E-008	0.00000E+000	-6.10000E-001	1.44296E-003	6	...........	-327.66
	675	135.2	-6.19954E-001	-6.33942E-008	0.00000E+000	-6.20000E-001	1.43732E-003	6	...........	-327.66
	676	135.4	-6.29834E-001	-6.34628E-008	0.00000E+000	-6.30000E-001	1.44069E-003	6	...........	-327.66
	677	135.6	-6.39950E-001	-6.36476E-008	0.00000E+000	-6.40000E-001	1.43112E-003	6	...........	-327.66
	678	135.8	-6.49779E-001	-6.37278E-008	0.00000E+000	-6.50000E-001	1.42665E-003	6	...........	-327.66
	679	136	-6.59868E-001	-6.38671E-008	0.00000E+000	-6.60000E-001	1.43384E-003	6	...........	-327.66
	680	136.2	-6.69787E-001	-6.35988E-008	0.00000E+000	-6.70000E-001	1.43962E-003	6	...........	-327.66
	681	136.4	-6.79833E-001	-6.34329E-008	0.00000E+000	-6.80000E-001	1.44678E-003	6	...........	-327.66
	682	136.6	-6.89873E-001	-6.28881E-008	0.00000E+000	-6.90000E-001	1.43822E-003	6	...........	-327.66
	683	136.8	-6.99944E-001	-6.22541E-008	0.00000E+000	-7.00000E-001	1.44914E-003	6	...........	-327.66
	684	137	-7.09825E-001	-6.11528E-008	0.00000E+000	-7.10000E-001	1.43552E-003	6	...........	-327.66
	685	137.2	-7.19965E-001	-5.99428E-008	0.00000E+000	-7.20000E-001	1.43891E-003	6	...........	-327.66
	686	137.4	-7.29844E-001	-5.83247E-008	0.00000E+000	-7.30000E-001	1.44347E-003	6	...........	-327.66
	687	137.6	-7.39930E-001	-5.66014E-008	0.00000E+000	-7.40000E-001	1.43497E-003	6	...........	-327.66
	688	137.8	-7.49809E-001	-5.46429E-008	0.00000E+000	-7.50000E-001	1.44893E-003	6	...........	-327.66
	689	138	-7.59892E-001	-5.25126E-008	0.00000E+000	-7.60000E-001	1.43150E-003	6	...........	-327.66
	690	138.2	-7.69876E-001	-5.01699E-008	0.00000E+000	-7.70000E-001	1.44389E-003	6	...........	-327.66
	691	138.4	-7.79828E-001	-4.76666E-008	0.00000E+000	-7.80000E-001	1.44561E-003	6	...........	-327.66
	692	138.6	-7.89871E-001	-4.52782E-008	0.00000E+000	-7.90000E-001	1.43429E-003	6	...........	-327.66
	693	138.8	-7.99959E-001	-4.29997E-008	0.00000E+000	-8.00000E-001	1.43245E-003	6	...........	-327.66
	694	139	-8.09831E-001	-4.03780E-008	0.00000E+000	-8.10000E-001	1.43537E-003	6	...........	-327.66
	695	139.2	-8.19899E-001	-3.81799E-008	0.00000E+000	-8.20000E-001	1.44157E-003	6	...........	-327.66
	696	139.4	-8.29749E-001	-3.60591E-008	0.00000E+000	-8.30000E-001	1.43796E-003	6	...........	-327.66
	697	139.6	-8.39914E-001	-3.41240E-008	0.00000E+000	-8.40000E-001	1.44714E-003	6	...........	-327.66
	698	139.8	-8.49842E-001	-3.20354E-008	0.00000E+000	-8.50000E-001	1.44121E-003	6	...........	-327.66
	699	140	-8.59832E-001	-3.03979E-008	0.00000E+000	-8.60000E-001	1.44187E-003	6	...........	-327.66
	700	140.2	-8.69890E-001	-2.88452E-008	0.00000E+000	-8.70000E-001	1.42825E-003	6	...........	-327.66
	701	140.4	-8.79938E-001	-2.76066E-008	0.00000E+000	-8.80000E-001	1.43596E-003	6	...........	-327.66
	702	140.6	-8.89909E-001	-2.64420E-008	0.00000E+000	-8.90000E-001	1.44126E-003	6	...........	-327.66
	703	140.8	-8.99965E-001	-2.54660E-008	0.00000E+000	-9.00000E-001	1.43649E-003	6	...........	-327.66
	704	141	-8.89967E-001	-2.16589E-008	0.00000E+000	-8.90000E-001	1.43847E-003	6	...........	-327.66
	705	141.2	-8.79990E-001	-1.96853E-008	0.00000E+000	-8.80000E-001	1.43124E-003	6	...........	-327.66
	706	141.4	-8.69978E-001	-1.81662E-008	0.00000E+000	-8.70000E-001	1.43110E-003	6	...........	-327.66
	707	141.6	-8.59891E-001	-1.67478E-008	0.00000E+000	-8.60000E-001	1.43774E-003	6	...........	-327.66
	708	141.8	-8.49937E-001	-1.53058E-008	0.00000E+000	-8.50000E-001	1.44017E-003	6	...........	-327.66
	709	142	-8.40007E-001	-1.39831E-008	0.00000E+000	-8.40000E-001	1.43367E-003	6	...........	-327.66
	710	142.2	-8.29823E-001	-1.25130E-008	0.00000E+000	-8.30000E-001	1.43310E-003	6	...........	-327.66
	711	142.4	-8.19988E-001	-1.10777E-008	0.00000E+000	-8.20000E-001	1.43622E-003	6	...........	-327.66
	712	142.6	-8.09903E-001	-9.36203E-009	0.00000E+000	-8.10000E-001	1.43514E-003	6	...........	-327.66
	713	142.8	-7.99965E-001	-7.54448E-009	0.00000E+000	-8.00000E-001	1.42787E-003	6	...........	-327.66
	714	143	-7.89943E-001	-5.37283E-009	0.00000E+000	-7.90000E-001	1.42892E-003	6	...........	-327.66
	715	143.2	-7.79953E-001	-3.05509E-009	0.00000E+000	-7.80000E-001	1.44017E-003	6	...........	-327.66
	716	143.4	-7.69962E-001	-3.11797E-010	0.00000E+000	-7.70000E-001	1.44372E-003	6	...........	-327.66
	717	143.6	-7.59971E-001	2.81981E-009	0.00000E+000	-7.60000E-001	1.44037E-003	6	...........	-327.66
	718	143.8	-7.49906E-001	6.30563E-009	0.00000E+000	-7.50000E-001	1.44474E-003	6	...........	-327.66
	719	144	-7.39996E-001	1.00693E-008	0.00000E+000	-7.40000E-001	1.43431E-003	6	...........	-327.66
	720	144.2	-7.29921E-001	1.42446E-008	0.00000E+000	-7.30000E-001	1.44069E-003	6	...........	-327.66
	721	144.4	-7.19994E-001	1.83737E-008	0.00000E+000	-7.20000E-001	1.42505E-003	6	...........	-327.66
	722	144.6	-7.09915E-001	2.22117E-008	0.00000E+000	-7.10000E-001	1.43741E-003	6	...........	-327.66
	723	144.8	-6.99968E-001	2.52771E-008	0.00000E+000	-7.00000E-001	1.44214E-003	6	...........	-327.66
	724	145	-6.89962E-001	2.74641E-008	0.00000E+000	-6.90000E-001	1.44051E-003	6	...........	-327.66
	725	145.2	-6.79927E-001	2.84512E-008	0.00000E+000	-6.80000E-001	1.44543E-003	6	...........	-327.66
	726	145.4	-6.69881E-001	2.86238E-008	0.00000E+000	-6.70000E-001	1.43421E-003	6	...........	-327.66
	727	145.6	-6.59969E-001	2.82462E-008	0.00000E+000	-6.60000E-001	1.43912E-003	6	...........	-327.66
	728	145.8	-6.49931E-001	2.79293E-008	0.00000E+000	-6.50000E-001	1.43534E-003	6	...........	-327.66
	729	146	-6.40001E-001	2.76328E-008	0.00000E+000	-6.40000E-001	1.43379E-003	6	...........	-327.66
	730	146.2	-6.29914E-001	2.75195E-008	0.00000E+000	-6.30000E-001	1.43032E-003	6	...........	-327.66
	731	146.4	-6.19989E-001	2.73469E-008	0.00000E+000	-6.20000E-001	1.43936E-003	6	...........	-327.66
	732	146.6	-6.10001E-001	2.73768E-008	0.00000E+000	-6.10000E-001	1.44711E-003	6	...........	-327.66
	733	146.8	-6.00012E-001	2.74741E-008	0.00000E+000	-6.00000E-001	1.44352E-003	6	...........	-327.66
	734	147	-5.89971E-001	2.76797E-008	0.00000E+000	-5.90000E-001	1.44586E-003	6	...........	-327.66
	735	147.2	-5.79931E-001	2.78253E-008	0.00000E+000	-5.80000E-001	1.43676E-003	6	...........	-327.66
	736	147.4	-5.69970E-001	2.80257E-008	0.00000E+000	-5.70000E-001	1.43112E-003	6	...........	-327.66
	737	147.6	-5.60017E-001	2.82621E-008	0.00000E+000	-5.60000E-001	1.42884E-003	6	...........	-327.66
	738	147.8	-5.49866E-001	2.85763E-008	0.00000E+000	-5.50000E-001	1.43417E-003	6	...........	-327.66
	739	148	-5.40002E-001	2.88425E-008	0.00000E+000	-5.40000E-001	1.44194E-003	6	...........	-327.66
	740	148.2	-5.29980E-001	2.92200E-008	0.00000E+000	-5.30000E-001	1.43786E-003	6	...........	-327.66
	741	148.4	-5.20041E-001	2.95636E-008	0.00000E+000	-5.20000E-001	1.44184E-003	6	...........	-327.66
	742	148.6	-5.09957E-001	3.00498E-008	0.00000E+000	-5.10000E-001	1.43581E-003	6	...........	-327.66
	743	148.8	-4.99905E-001	3.03777E-008	0.00000E+000	-5.00000E-001	1.45031E-003	6	...........	-327.66
	744	149	-4.89998E-001	3.08441E-008	0.00000E+000	-4.90000E-001	1.43576E-003	6	...........	-327.66
	745	149.2	-4.79979E-001	3.12598E-008	0.00000E+000	-4.80000E-001	1.43577E-003	6	...........	-327.66
	746	149.4	-4.69877E-001	3.17908E-008	0.00000E+000	-4.70000E-001	1.45086E-003	6	...........	-327.66
	747	149.6	-4.59994E-001	3.22341E-008	0.00000E+000	-4.60000E-001	1.44184E-003	6	...........	-327.66
	748	149.8	-4.49955E-001	3.28147E-008	0.00000E+000	-4.50000E-001	1.43954E-003	6	...........	-327.66
	749	150	-4.40013E-001	3.33809E-008	0.00000E+000	-4.40000E-001	1.44739E-003	6	...........	-327.66
	750	150.2	-4.29997E-001	3.39355E-008	0.00000E+000	-4.30000E-001	1.44756E-003	6	...........	-327.66
	751	150.4	-4.20001E-001	3.44829E-008	0.00000E+000	-4.20000E-001	1.44257E-003	6	...........	-327.66
	752	150.6	-4.10006E-001	3.51963E-008	0.00000E+000	-4.10000E-001	1.44092E-003	6	...........	-327.66
	753	150.8	-3.99983E-001	3.57995E-008	0.00000E+000	-4.00000E-001	1.44141E-003	6	...........	-327.66
	754	151	-3.89943E-001	3.63568E-008	0.00000E+000	-3.90000E-001	1.44162E-003	6	...........	-327.66
	755	151.2	-3.80013E-001	3.68935E-008	0.00000E+000	-3.80000E-001	1.45548E-003	6	...........	-327.66
	756	151.4	-3.69914E-001	3.75642E-008	0.00000E+000	-3.70000E-001	1.43927E-003	6	...........	-327.66
	757	151.6	-3.60020E-001	3.81428E-008	0.00000E+000	-3.60000E-001	1.44933E-003	6	...........	-327.66
	758	151.8	-3.49997E-001	3.87628E-008	0.00000E+000	-3.50000E-001	1.44291E-003	6	...........	-327.66
	759	152	-3.40018E-001	3.93003E-008	0.00000E+000	-3.40000E-001	1.44616E-003	6	...........	-327.66
	760	152.2	-3.30021E-001	3.99362E-008	0.00000E+000	-3.30000E-001	1.43897E-003	6	...........	-327.66
	761	152.4	-3.20021E-001	4.04694E-008	0.00000E+000	-3.20000E-001	1.43340E-003	6	...........	-327.66
	762	152.6	-3.10002E-001	4.11020E-008	0.00000E+000	-3.10000E-001	1.43315E-003	6	...........	-327.66
	763	152.8	-3.00002E-001	4.15964E-008	0.00000E+000	-3.00000E-001	1.43654E-003	6	...........	-327.66
	764	153	-2.89981E-001	4.21226E-008	0.00000E+000	-2.90000E-001	1.43919E-003	6	...........	-327.66
	765	153.2	-2.80021E-001	4.26403E-008	0.00000E+000	-2.80000E-001	1.43799E-003	6	...........	-327.66
	766	153.4	-2.69957E-001	4.32009E-008	0.00000E+000	-2.70000E-001	1.44754E-003	6	...........	-327.66
	767	153.6	-2.60010E-001	4.36139E-008	0.00000E+000	-2.60000E-001	1.43774E-003	6	...........	-327.66
	768	153.8	-2.50015E-001	4.40954E-008	0.00000E+000	-2.50000E-001	1.43205E-003	6	...........	-327.66
	769	154	-2.40023E-001	4.45744E-008	0.00000E+000	-2.40000E-001	1.43981E-003	6	...........	-327.66
	770	154.2	-2.30004E-001	4.50525E-008	0.00000E+000	-2.30000E-001	1.42944E-003	6	...........	-327.66
	771	154.4	-2.19941E-001	4.53937E-008	0.00000E+000	-2.20000E-001	1.44403E-003	6	...........	-327.66
	772	154.6	-2.09991E-001	4.58130E-008	0.00000E+000	-2.10000E-001	1.44808E-003	6	...........	-327.66
	773	154.8	-2.00057E-001	4.61148E-008	0.00000E+000	-2.00000E-001	1.44458E-003	6	...........	-327.66
	774	155	-1.89914E-001	4.65479E-008	0.00000E+000	-1.90000E-001	1.44854E-003	6	...........	-327.66
	775	155.2	-1.80019E-001	4.67969E-008	0.00000E+000	-1.80000E-001	1.43224E-003	6	...........	-327.66
	776	155.4	-1.70023E-001	4.71506E-008	0.00000E+000	-1.70000E-001	1.43752E-003	6	...........	-327.66
	777	155.6	-1.60047E-001	4.73125E-008	0.00000E+000	-1.60000E-001	1.43222E-003	6	...........	-327.66
	778	155.8	-1.50033E-001	4.76891E-008	0.00000E+000	-1.50000E-001	1.43426E-003	6	...........	-327.66
	779	156	-1.40000E-001	4.79012E-008	0.00000E+000	-1.40000E-001	1.43957E-003	6	...........	-327.66
	780	156.2	-1.30026E-001	4.81934E-008	0.00000E+000	-1.30000E-001	1.44102E-003	6	...........	-327.66
	781	156.4	-1.20036E-001	4.84409E-008	0.00000E+000	-1.20000E-001	1.44326E-003	6	...........	-327.66
	782	156.6	-1.10005E-001	4.86160E-008	0.00000E+000	-1.10000E-001	1.43636E-003	6	...........	-327.66
	783	156.8	-1.00018E-001	4.87776E-008	0.00000E+000	-1.00000E-001	1.43971E-003	6	...........	-327.66
	784	157	-9.00098E-002	4.91004E-008	0.00000E+000	-9.00000E-002	1.43584E-003	6	...........	-327.66
	785	157.2	-8.00268E-002	4.92883E-008	0.00000E+000	-8.00000E-002	1.43139E-003	6	...........	-327.66
	786	157.4	-7.00024E-002	4.94327E-008	0.00000E+000	-7.00000E-002	1.42640E-003	6	...........	-327.66
	787	157.6	-6.00185E-002	4.94878E-008	0.00000E+000	-6.00000E-002	1.44414E-003	6	...........	-327.66
	788	157.8	-5.00386E-002	4.97296E-008	0.00000E+000	-5.00000E-002	1.44044E-003	6	...........	-327.66
	789	158	-3.99910E-002	5.00735E-008	0.00000E+000	-4.00000E-002	1.44559E-003	6	...........	-327.66
	790	158.2	-2.99910E-002	5.02760E-008	0.00000E+000	-3.00000E-002	1.43821E-003	6	...........	-327.66
	791	158.4	-2.00010E-002	5.01355E-008	0.00000E+000	-2.00000E-002	1.43372E-003	6	...........	-327.66
	792	158.6	-1.00015E-002	5.03366E-008	0.00000E+000	-1.00000E-002	1.43412E-003	6	...........	-327.66
	793	158.8	-2.44833E-005	5.06305E-008	0.00000E+000	-1.49012E-008	1.43816E-003	6	...........	-327.66
	794	159	1.00225E-002	5.08832E-008	0.00000E+000	9.99999E-003	1.43252E-003	6	...........	-327.66
	795	159.2	1.99976E-002	5.08851E-008	0.00000E+000	2.00000E-002	1.43632E-003	6	...........	-327.66
	796	159.4	2.99950E-002	5.08500E-008	0.00000E+000	3.00000E-002	1.44358E-003	6	...........	-327.66
	797	159.6	3.97636E-002	5.12524E-008	0.00000E+000	4.00000E-002	1.44272E-003	6	...........	-327.66
	798	159.8	5.00371E-002	5.13658E-008	0.00000E+000	5.00000E-002	1.44197E-003	6	...........	-327.66
	799	160	6.00167E-002	5.14438E-008	0.00000E+000	6.00000E-002	1.43651E-003	6	...........	-327.66
	800	160.2	7.00078E-002	5.14679E-008	0.00000E+000	7.00000E-002	1.43852E-003	6	...........	-327.66
	801	160.4	7.99773E-002	5.16541E-008	0.00000E+000	8.00000E-002	1.42479E-003	6	...........	-327.66
	802	160.6	9.01371E-002	5.18980E-008	0.00000E+000	9.00000E-002	1.43699E-003	6	...........	-327.66
	803	160.8	9.99836E-002	5.20259E-008	0.00000E+000	1.00000E-001	1.43654E-003	6	...........	-327.66
	804	161	1.09989E-001	5.22590E-008	0.00000E+000	1.10000E-001	1.43439E-003	6	...........	-327.66
	805	161.2	1.19992E-001	5.24203E-008	0.00000E+000	1.20000E-001	1.43709E-003	6	...........	-327.66
	806	161.4	1.30019E-001	5.27364E-008	0.00000E+000	1.30000E-001	1.43099E-003	6	...........	-327.66
	807	161.6	1.40052E-001	5.28404E-008	0.00000E+000	1.40000E-001	1.45056E-003	6	...........	-327.66
	808	161.8	1.50002E-001	5.31143E-008	0.00000E+000	1.50000E-001	1.43325E-003	6	...........	-327.66
	809	162	1.59978E-001	5.33613E-008	0.00000E+000	1.60000E-001	1.43057E-003	6	...........	-327.66
	810	162.2	1.70062E-001	5.36665E-008	0.00000E+000	1.70000E-001	1.43459E-003	6	...........	-327.66
	811	162.4	1.79984E-001	5.38139E-008	0.00000E+000	1.80000E-001	1.44654E-003	6	...........	-327.66
	812	162.6	1.89995E-001	5.40559E-008	0.00000E+000	1.90000E-001	1.44369E-003	6	...........	-327.66
	813	162.8	1.99980E-001	5.42896E-008	0.00000E+000	2.00000E-001	1.44793E-003	6	...........	-327.66
	814	163	2.09974E-001	5.45708E-008	0.00000E+000	2.10000E-001	1.44719E-003	6	...........	-327.66
	815	163.2	2.19935E-001	5.46899E-008	0.00000E+000	2.20000E-001	1.43554E-003	6	...........	-327.66
	816	163.4	2.29986E-001	5.49061E-008	0.00000E+000	2.30000E-001	1.43651E-003	6	...........	-327.66
	817	163.6	2.39960E-001	5.51454E-008	0.00000E+000	2.40000E-001	1.42700E-003	6	...........	-327.66
	818	163.8	2.50009E-001	5.53986E-008	0.00000E+000	2.50000E-001	1.43969E-003	6	...........	-327.66
	819	164	2.59973E-001	5.54583E-008	0.00000E+000	2.60000E-001	1.44696E-003	6	...........	-327.66
	820	164.2	2.69995E-001	5.58075E-008	0.00000E+000	2.70000E-001	1.43976E-003	6	...........	-327.66
	821	164.4	2.79962E-001	5.60159E-008	0.00000E+000	2.80000E-001	1.44909E-003	6	...........	-327.66
	822	164.6	2.89965E-001	5.63319E-008	0.00000E+000	2.90000E-001	1.43987E-003	6	...........	-327.66
	823	164.8	2.99977E-001	5.64714E-008	0.00000E+000	3.00000E-001	1.44064E-003	6	...........	-327.66
	824	165	3.09977E-001	5.67048E-008	0.00000E+000	3.10000E-001	1.43739E-003	6	...........	-327.66
	825	165.2	3.19969E-001	5.69881E-008	0.00000E+000	3.20000E-001	1.43437E-003	6	...........	-327.66
	826	165.4	3.29985E-001	5.73208E-008	0.00000E+000	3.30000E-001	1.43419E-003	6	...........	-327.66
	827	165.6	3.39979E-001	5.74908E-008	0.00000E+000	3.40000E-001	1.43894E-003	6	...........	-327.66
	828	165.8	3.50004E-001	5.77787E-008	0.00000E+000	3.50000E-001	1.44391E-003	6	...........	-327.66
	829	166	3.59945E-001	5.81100E-008	0.00000E+000	3.60000E-001	1.43401E-003	6	...........	-327.66
	830	166.2	3.69972E-001	5.84456E-008	0.00000E+000	3.70000E-001	1.45026E-003	6	...........	-327.66
	831	166.4	3.79978E-001	5.86275E-008	0.00000E+000	3.80000E-001	1.43424E-003	6	...........	-327.66
	832	166.6	3.89965E-001	5.89445E-008	0.00000E+000	3.90000E-001	1.43416E-003	6	...........	-327.66
	833	166.8	3.99946E-001	5.93342E-008	0.00000E+000	4.00000E-001	1.43599E-003	6	...........	-327.66
	834	167	4.09961E-001	5.96291E-008	0.00000E+000	4.10000E-001	1.43125E-003	6	...........	-327.66
	835	167.2	4.19980E-001	5.99057E-008	0.00000E+000	4.20000E-001	1.43696E-003	6	...........	-327.66
	836	167.4	4.29979E-001	6.02683E-008	0.00000E+000	4.30000E-001	1.43842E-003	6	...........	-327.66
	837	167.6	4.39918E-001	6.06926E-008	0.00000E+000	4.40000E-001	1.44059E-003	6	...........	-327.66
	838	167.8	4.49975E-001	6.11933E-008	0.00000E+000	4.50000E-001	1.43012E-003	6	...........	-327.66
	839	168	4.59965E-001	6.15607E-008	0.00000E+000	4.60000E-001	1.43391E-003	6	...........	-327.66
	840	168.2	4.69942E-001	6.20149E-008	0.00000E+000	4.70000E-001	1.42774E-003	6	...........	-327.66
	841	168.4	4.79946E-001	6.24495E-008	0.00000E+000	4.80000E-001	1.43247E-003	6	...........	-327.66
	842	168.6	4.89949E-001	6.29675E-008	0.00000E+000	4.90000E-001	1.43407E-003	6	...........	-327.66
	843	168.8	4.99979E-001	6.35252E-008	0.00000E+000	5.00000E-001	1.43642E-003	6	...........	-327.66
	844	169	5.09963E-001	6.40505E-008	0.00000E+000	5.10000E-001	1.44262E-003	6	...........	-327.66
	845	169.2	5.19943E-001	6.46741E-008	0.00000E+000	5.20000E-001	1.44229E-003	6	...........	-327.66
	846	169.4	5.29990E-001	6.53292E-008	0.00000E+000	5.30000E-001	1.44474E-003	6	...........	-327.66
	847	169.6	5.39976E-001	6.59827E-008	0.00000E+000	5.40000E-001	1.42664E-003	6	...........	-327.66
	848	169.8	5.49970E-001	6.67933E-008	0.00000E+000	5.50000E-001	1.44139E-003	6	...........	-327.66
	849	170	5.59957E-001	6.76727E-008	0.00000E+000	5.60000E-001	1.43364E-003	6	...........	-327.66
	850	170.2	5.69961E-001	6.86500E-008	0.00000E+000	5.70000E-001	1.43154E-003	6	...........	-327.66
	851	170.4	5.79973E-001	6.96790E-008	0.00000E+000	5.80000E-001	1.43961E-003	6	...........	-327.66
	852	170.6	5.89951E-001	7.09667E-008	0.00000E+000	5.90000E-001	1.44448E-003	6	...........	-327.66
	853	170.8	5.99958E-001	7.23961E-008	0.00000E+000	6.00000E-001	1.44578E-003	6	...........	-327.66
CURVE4	TABLE
	Pt	T	Vf	Im	Vu	Sig	Ach	IERange	Over	Temp
	#	s	V vs. Ref.	A	V	V	V	#	bits	deg C
	854	171	5.89980E-001	-8.70961E-009	0.00000E+000	5.90000E-001	1.44041E-003	6	...........	-327.66
	855	171.2	5.79992E-001	-1.55396E-008	0.00000E+000	5.80000E-001	1.44082E-003	6	...........	-327.66
	856	171.4	5.69977E-001	-1.97144E-008	0.00000E+000	5.70000E-001	1.42559E-003	6	...........	-327.66
	857	171.6	5.59954E-001	-2.27221E-008	0.00000E+000	5.60000E-001	1.42597E-003	6	...........	-327.66
	858	171.8	5.49982E-001	-2.49287E-008	0.00000E+000	5.50000E-001	1.44034E-003	6	...........	-327.66
	859	172	5.39995E-001	-2.66804E-008	0.00000E+000	5.40000E-001	1.43134E-003	6	...........	-327.66
	860	172.2	5.30000E-001	-2.79742E-008	0.00000E+000	5.30000E-001	1.44042E-003	6	...........	-327.66
	861	172.4	5.19980E-001	-2.90628E-008	0.00000E+000	5.20000E-001	1.43892E-003	6	...........	-327.66
	862	172.6	5.09964E-001	-2.99485E-008	0.00000E+000	5.10000E-001	1.43996E-003	6	...........	-327.66
	863	172.8	5.00005E-001	-3.06980E-008	0.00000E+000	5.00000E-001	1.44609E-003	6	...........	-327.66
	864	173	4.89966E-001	-3.13697E-008	0.00000E+000	4.90000E-001	1.42449E-003	6	...........	-327.66
	865	173.2	4.79966E-001	-3.19995E-008	0.00000E+000	4.80000E-001	1.42934E-003	6	...........	-327.66
	866	173.4	4.69967E-001	-3.24741E-008	0.00000E+000	4.70000E-001	1.42652E-003	6	...........	-327.66
	867	173.6	4.59994E-001	-3.29986E-008	0.00000E+000	4.60000E-001	1.43209E-003	6	...........	-327.66
	868	173.8	4.50038E-001	-3.33729E-008	0.00000E+000	4.50000E-001	1.43340E-003	6	...........	-327.66
	869	174	4.39938E-001	-3.38316E-008	0.00000E+000	4.40000E-001	1.43689E-003	6	...........	-327.66
	870	174.2	4.29991E-001	-3.41487E-008	0.00000E+000	4.30000E-001	1.43789E-003	6	...........	-327.66
	871	174.4	4.20038E-001	-3.44690E-008	0.00000E+000	4.20000E-001	1.42997E-003	6	...........	-327.66
	872	174.6	4.09976E-001	-3.47387E-008	0.00000E+000	4.10000E-001	1.42208E-003	6	...........	-327.66
	873	174.8	3.99965E-001	-3.50581E-008	0.00000E+000	4.00000E-001	1.42790E-003	6	...........	-327.66
	874	175	3.89985E-001	-3.53647E-008	0.00000E+000	3.90000E-001	1.43441E-003	6	...........	-327.66
	875	175.2	3.79998E-001	-3.55962E-008	0.00000E+000	3.80000E-001	1.42534E-003	6	...........	-327.66
	876	175.4	3.70028E-001	-3.57579E-008	0.00000E+000	3.70000E-001	1.43747E-003	6	...........	-327.66
	877	175.6	3.59942E-001	-3.60771E-008	0.00000E+000	3.60000E-001	1.43334E-003	6	...........	-327.66
	878	175.8	3.50012E-001	-3.63303E-008	0.00000E+000	3.50000E-001	1.43564E-003	6	...........	-327.66
	879	176	3.40008E-001	-3.65363E-008	0.00000E+000	3.40000E-001	1.43384E-003	6	...........	-327.66
	880	176.2	3.30009E-001	-3.66905E-008	0.00000E+000	3.30000E-001	1.42040E-003	6	...........	-327.66
	881	176.4	3.19981E-001	-3.69713E-008	0.00000E+000	3.20000E-001	1.42765E-003	6	...........	-327.66
	882	176.6	3.09991E-001	-3.71701E-008	0.00000E+000	3.10000E-001	1.42627E-003	6	...........	-327.66
	883	176.8	2.99997E-001	-3.74016E-008	0.00000E+000	3.00000E-001	1.43100E-003	6	...........	-327.66
	884	177	2.90003E-001	-3.74767E-008	0.00000E+000	2.90000E-001	1.43766E-003	6	...........	-327.66
	885	177.2	2.79974E-001	-3.77000E-008	0.00000E+000	2.80000E-001	1.43856E-003	6	...........	-327.66
	886	177.4	2.70074E-001	-3.78323E-008	0.00000E+000	2.70000E-001	1.43094E-003	6	...........	-327.66
	887	177.6	2.60003E-001	-3.80913E-008	0.00000E+000	2.60000E-001	1.43654E-003	6	...........	-327.66
	888	177.8	2.50045E-001	-3.81140E-008	0.00000E+000	2.50000E-001	1.42912E-003	6	...........	-327.66
	889	178	2.40000E-001	-3.83656E-008	0.00000E+000	2.40000E-001	1.43037E-003	6	...........	-327.66
	890	178.2	2.29998E-001	-3.85411E-008	0.00000E+000	2.30000E-001	1.43210E-003	6	...........	-327.66
	891	178.4	2.19998E-001	-3.87320E-008	0.00000E+000	2.20000E-001	1.43009E-003	6	...........	-327.66
	892	178.6	2.09998E-001	-3.88451E-008	0.00000E+000	2.10000E-001	1.43345E-003	6	...........	-327.66
	893	178.8	1.99999E-001	-3.90157E-008	0.00000E+000	2.00000E-001	1.43449E-003	6	...........	-327.66
	894	179	1.90048E-001	-3.91751E-008	0.00000E+000	1.90000E-001	1.43887E-003	6	...........	-327.66
	895	179.2	1.80012E-001	-3.93811E-008	0.00000E+000	1.80000E-001	1.43651E-003	6	...........	-327.66
	896	179.4	1.70085E-001	-3.94626E-008	0.00000E+000	1.70000E-001	1.43709E-003	6	...........	-327.66
	897	179.6	1.60004E-001	-3.96499E-008	0.00000E+000	1.60000E-001	1.43267E-003	6	...........	-327.66
	898	179.8	1.50019E-001	-3.97872E-008	0.00000E+000	1.50000E-001	1.43491E-003	6	...........	-327.66
	899	180	1.40093E-001	-3.99928E-008	0.00000E+000	1.40000E-001	1.43831E-003	6	...........	-327.66
	900	180.2	1.30037E-001	-4.00849E-008	0.00000E+000	1.30000E-001	1.43357E-003	6	...........	-327.66
