EXPLAIN
TAG	CV
TITLE	LABEL	CV5000	Test Identifier
DATE	LABEL	5/9/2025	Date
TIME	LABEL	14:46:28	Time
NOTES	NOTES	1	Notes...
	
PSTAT	PSTAT	REF600P-43058	Potentiostat
VINIT	POTEN	0.00000E+000	T	Initial E (V)
VLIMIT1	POTEN	-9.00000E-001	F	Scan Limit 1 (V)
VLIMIT2	POTEN	6.00000E-001	F	Scan Limit 2 (V)
VFINAL	POTEN	0.00000E+000	T	Final E (V)
SCANRATE	QUANT	4.99999E+003	Scan Rate (mV/s)
STEPSIZE	QUANT	1.00000E+001	Step Size (mV)
CYCLES	IQUANT	3	Cycles (#)
IMODE	SELECTOR	1	I/E Range Mode
IRANGE	QUANT	1.00000E-002	Max Current (mA)
AREA	QUANT	1.00000E+000	Sample Area (cm^2)
EQDELAY	QUANT	5.00000E+000	Equil. Time (s)
IRCOMP	SELECTOR	0	IRComp
PFCOR	QUANT	5.00000E+001	PF Corr. (ohm)
SAMPLINGMODE	SELECTOR	2	Sampling Mode
EOC	QUANT	0.1704582	Open Circuit (V)
ELECTRODETYPE	SELECTOR	0	Electrode Type
STRIPPING	TOGGLE	F	Used for Stripping
SEQUENCER	TOGGLE	TRUE	Run as Sequence
PSTATMODEL	IQUANT	7	Pstat Model
PSTATSECTION	LABEL	REF600P-43058	Pstat Section
PSTATSERIALNO	LABEL	43058	Pstat Serial Number
CTRLMODE	IQUANT	1	Control Mode
ELECTROMETER	IQUANT	0	RE=0 or CS=1
IESTAB	IQUANT	2	I/E Stability
CASPEED	IQUANT	4	Control Amp Speed
CONVENTION	IQUANT	1	Current Convention
ICHRANGE	IQUANT	2	Ich Range
ICHRANGEMODE	TOGGLE	F	Ich Auto Range
ICHOFFSETENABLE	TOGGLE	F	Ich Offset Enable
ICHOFFSET	QUANT	0	Ich Offset (V)
ICHFILTER	IQUANT	2	Ich Filter
VCHRANGE	IQUANT	2	Vch Range
VCHRANGEMODE	TOGGLE	F	Vch Auto Range
VCHOFFSETENABLE	TOGGLE	F	Vch Offset Enable
VCHOFFSET	QUANT	0	Vch Offset (V)
VCHFILTER	IQUANT	2	Vch Filter
ACHRANGE	IQUANT	2	Ach Range
ACHOFFSETENABLE	TOGGLE	F	Ach Offset Enable
ACHOFFSET	QUANT	0	Ach Offset (V)
ACHFILTER	IQUANT	1	Ach Filter
IERANGELOWERLIMIT	IQUANT	1	I/E Range Lower Limit
IERANGEMODE	TOGGLE	F	I/E AutoRange
IERANGE	IQUANT	7	I/E Range
POSFEEDENABLE	TOGGLE	F	Positive Feedback IR Comp
POSFEEDRESISTANCE	QUANT	0	Positive Feedback Resistance (ohm)
ACHSELECT	IQUANT	4	Ach Select
SENSECABLEID	IQUANT	7	Sense Cable ID
PWRCABLEID	IQUANT	7	Power Cable ID
DCCALDATE	LABEL	5/8/2025	DC Calibration Date
ACCALDATE	LABEL	5/8/2025	AC Calibration Date
THERMOSELECT	IQUANT	1	Thermo Select
FRAMEWORKVERSION	LABEL	7.10.4	Framework Version
INSTRUMENTVERSION	LABEL	5.01	Instrument Version
COMMVERSION	LABEL	5.10	Communications Version
CPUPLDVERSION	LABEL	6.00	CPU PLD Version
CTRLPLDVERSION	LABEL	3.21	CTRL PLD Version
PSTATPLDVERSION	LABEL	0.00	PSTAT PLD Version
CURVE1	TABLE
	Pt	T	Vf	Im	Vu	Sig	Ach	IERange	Over	Temp
	#	s	V vs. Ref.	A	V	V	V	#	bits	deg C
	0	0.002	1.70435E-001	7.92390E-009	0.00000E+000	1.70450E-001	1.41091E-003	7	...........	-327.66
	1	0.004	1.61318E-001	-6.60029E-007	0.00000E+000	1.60450E-001	1.38333E-003	7	...........	-327.66
	2	0.006	1.51266E-001	-1.00032E-006	0.00000E+000	1.50450E-001	1.37815E-003	7	...........	-327.66
	3	0.008	1.41328E-001	-1.24230E-006	0.00000E+000	1.40450E-001	1.46953E-003	7	...........	-327.66
	4	0.01	1.31284E-001	-1.44150E-006	0.00000E+000	1.30450E-001	1.40919E-003	7	...........	-327.66
	5	0.012	1.21358E-001	-1.61494E-006	0.00000E+000	1.20450E-001	1.50229E-003	7	...........	-327.66
	6	0.014	1.11266E-001	-1.76927E-006	0.00000E+000	1.10450E-001	1.36436E-003	7	...........	-327.66
	7	0.016	1.01249E-001	-1.91220E-006	0.00000E+000	1.00450E-001	1.40747E-003	7	...........	-327.66
	8	0.018	9.12868E-002	-2.04515E-006	0.00000E+000	9.04500E-002	1.46953E-003	7	...........	-327.66
	9	0.02	8.12799E-002	-2.16949E-006	0.00000E+000	8.04500E-002	1.42298E-003	7	...........	-327.66
	10	0.022	7.12471E-002	-2.28801E-006	0.00000E+000	7.04500E-002	1.40402E-003	7	...........	-327.66
	11	0.024	6.12816E-002	-2.39802E-006	0.00000E+000	6.04500E-002	1.42298E-003	7	...........	-327.66
	12	0.026	5.12575E-002	-2.50569E-006	0.00000E+000	5.04500E-002	1.43850E-003	7	...........	-327.66
	13	0.028	4.13454E-002	-2.60723E-006	0.00000E+000	4.04500E-002	1.42815E-003	7	...........	-327.66
	14	0.03	3.12540E-002	-2.70488E-006	0.00000E+000	3.04500E-002	1.43160E-003	7	...........	-327.66
	15	0.032	2.12877E-002	-2.79703E-006	0.00000E+000	2.04500E-002	1.49540E-003	7	...........	-327.66
	16	0.034	1.13359E-002	-2.88709E-006	0.00000E+000	1.04500E-002	1.41609E-003	7	...........	-327.66
	17	0.036	1.28851E-003	-2.97328E-006	0.00000E+000	4.49985E-004	1.41264E-003	7	...........	-327.66
	18	0.038	-8.72097E-003	-3.05727E-006	0.00000E+000	-9.55001E-003	1.47988E-003	7	...........	-327.66
	19	0.04	-1.87425E-002	-3.13830E-006	0.00000E+000	-1.95500E-002	1.39712E-003	7	...........	-327.66
	20	0.042	-2.87511E-002	-3.21567E-006	0.00000E+000	-2.95500E-002	1.43160E-003	7	...........	-327.66
	21	0.044	-3.86951E-002	-3.29185E-006	0.00000E+000	-3.95500E-002	1.40574E-003	7	...........	-327.66
	22	0.046	-4.87572E-002	-3.36498E-006	0.00000E+000	-4.95500E-002	1.42815E-003	7	...........	-327.66
	23	0.048	-5.87175E-002	-3.43625E-006	0.00000E+000	-5.95500E-002	1.46609E-003	7	...........	-327.66
	24	0.05	-6.87037E-002	-3.50492E-006	0.00000E+000	-6.95500E-002	1.44884E-003	7	...........	-327.66
	25	0.052	-7.87374E-002	-3.57160E-006	0.00000E+000	-7.95500E-002	1.44884E-003	7	...........	-327.66
	26	0.054	-8.87322E-002	-3.63833E-006	0.00000E+000	-8.95500E-002	1.39884E-003	7	...........	-327.66
	27	0.056	-9.87641E-002	-3.70294E-006	0.00000E+000	-9.95500E-002	1.40057E-003	7	...........	-327.66
	28	0.058	-1.08752E-001	-3.76631E-006	0.00000E+000	-1.09550E-001	1.52126E-003	7	...........	-327.66
	29	0.06	-1.18716E-001	-3.82667E-006	0.00000E+000	-1.19550E-001	1.52126E-003	7	...........	-327.66
	30	0.062	-1.28748E-001	-3.88738E-006	0.00000E+000	-1.29550E-001	1.49367E-003	7	...........	-327.66
	31	0.064	-1.38627E-001	-3.94539E-006	0.00000E+000	-1.39550E-001	1.43505E-003	7	...........	-327.66
	32	0.066	-1.48749E-001	-4.00323E-006	0.00000E+000	-1.49550E-001	1.46436E-003	7	...........	-327.66
	33	0.068	-1.58710E-001	-4.05911E-006	0.00000E+000	-1.59550E-001	1.39540E-003	7	...........	-327.66
	34	0.07	-1.68689E-001	-4.11491E-006	0.00000E+000	-1.69550E-001	1.42815E-003	7	...........	-327.66
	35	0.072	-1.78755E-001	-4.16959E-006	0.00000E+000	-1.79550E-001	1.38850E-003	7	...........	-327.66
	36	0.074	-1.88672E-001	-4.22308E-006	0.00000E+000	-1.89550E-001	1.36436E-003	7	...........	-327.66
	37	0.076	-1.98734E-001	-4.27590E-006	0.00000E+000	-1.99550E-001	1.39367E-003	7	...........	-327.66
	38	0.078	-2.08742E-001	-4.32761E-006	0.00000E+000	-2.09550E-001	1.39540E-003	7	...........	-327.66
	39	0.08	-2.18645E-001	-4.37736E-006	0.00000E+000	-2.19550E-001	1.45574E-003	7	...........	-327.66
	40	0.082	-2.28713E-001	-4.42796E-006	0.00000E+000	-2.29550E-001	1.44367E-003	7	...........	-327.66
	41	0.084	-2.38628E-001	-4.47620E-006	0.00000E+000	-2.39550E-001	1.41091E-003	7	...........	-327.66
	42	0.086	-2.48685E-001	-4.52490E-006	0.00000E+000	-2.49550E-001	1.45747E-003	7	...........	-327.66
	43	0.088	-2.58675E-001	-4.57137E-006	0.00000E+000	-2.59550E-001	1.39022E-003	7	...........	-327.66
	44	0.09	-2.68638E-001	-4.61717E-006	0.00000E+000	-2.69550E-001	1.41781E-003	7	...........	-327.66
	45	0.092	-2.78664E-001	-4.66149E-006	0.00000E+000	-2.79550E-001	1.41953E-003	7	...........	-327.66
	46	0.094	-2.88712E-001	-4.70472E-006	0.00000E+000	-2.89550E-001	1.46781E-003	7	...........	-327.66
	47	0.096	-2.98685E-001	-4.74684E-006	0.00000E+000	-2.99550E-001	1.46436E-003	7	...........	-327.66
	48	0.098	-3.08700E-001	-4.78830E-006	0.00000E+000	-3.09550E-001	1.49540E-003	7	...........	-327.66
	49	0.1	-3.18634E-001	-4.82644E-006	0.00000E+000	-3.19550E-001	1.44022E-003	7	...........	-327.66
	50	0.102	-3.28720E-001	-4.86507E-006	0.00000E+000	-3.29550E-001	1.45919E-003	7	...........	-327.66
	51	0.104	-3.38680E-001	-4.90199E-006	0.00000E+000	-3.39550E-001	1.41264E-003	7	...........	-327.66
	52	0.106	-3.48651E-001	-4.93642E-006	0.00000E+000	-3.49550E-001	1.48850E-003	7	...........	-327.66
	53	0.108	-3.58686E-001	-4.97048E-006	0.00000E+000	-3.59550E-001	1.42126E-003	7	...........	-327.66
	54	0.11	-3.68670E-001	-5.00200E-006	0.00000E+000	-3.69550E-001	1.41091E-003	7	...........	-327.66
	55	0.112	-3.78717E-001	-5.03283E-006	0.00000E+000	-3.79550E-001	1.41609E-003	7	...........	-327.66
	56	0.114	-3.88718E-001	-5.05990E-006	0.00000E+000	-3.89550E-001	1.47643E-003	7	...........	-327.66
	57	0.116	-3.98653E-001	-5.08570E-006	0.00000E+000	-3.99550E-001	1.39022E-003	7	...........	-327.66
	58	0.118	-4.08724E-001	-5.11058E-006	0.00000E+000	-4.09550E-001	1.39884E-003	7	...........	-327.66
	59	0.12	-4.18628E-001	-5.13243E-006	0.00000E+000	-4.19550E-001	1.41781E-003	7	...........	-327.66
	60	0.122	-4.28665E-001	-5.15466E-006	0.00000E+000	-4.29550E-001	1.39367E-003	7	...........	-327.66
	61	0.124	-4.38658E-001	-5.17278E-006	0.00000E+000	-4.39550E-001	1.40919E-003	7	...........	-327.66
	62	0.126	-4.48612E-001	-5.18799E-006	0.00000E+000	-4.49550E-001	1.41091E-003	7	...........	-327.66
	63	0.128	-4.58687E-001	-5.20511E-006	0.00000E+000	-4.59550E-001	1.46264E-003	7	...........	-327.66
	64	0.13	-4.68673E-001	-5.21784E-006	0.00000E+000	-4.69550E-001	1.46436E-003	7	...........	-327.66
	65	0.132	-4.78606E-001	-5.22888E-006	0.00000E+000	-4.79550E-001	1.46091E-003	7	...........	-327.66
	66	0.134	-4.88689E-001	-5.23938E-006	0.00000E+000	-4.89550E-001	1.47126E-003	7	...........	-327.66
	67	0.136	-4.98640E-001	-5.24719E-006	0.00000E+000	-4.99550E-001	1.47298E-003	7	...........	-327.66
	68	0.138	-5.08684E-001	-5.25490E-006	0.00000E+000	-5.09550E-001	1.47643E-003	7	...........	-327.66
	69	0.14	-5.18630E-001	-5.26085E-006	0.00000E+000	-5.19550E-001	1.47298E-003	7	...........	-327.66
	70	0.142	-5.28657E-001	-5.26390E-006	0.00000E+000	-5.29550E-001	1.48505E-003	7	...........	-327.66
	71	0.144	-5.38694E-001	-5.26604E-006	0.00000E+000	-5.39550E-001	1.40229E-003	7	...........	-327.66
	72	0.146	-5.48653E-001	-5.26657E-006	0.00000E+000	-5.49550E-001	1.41091E-003	7	...........	-327.66
	73	0.148	-5.58692E-001	-5.26455E-006	0.00000E+000	-5.59550E-001	1.40574E-003	7	...........	-327.66
	74	0.15	-5.68686E-001	-5.25854E-006	0.00000E+000	-5.69550E-001	1.45057E-003	7	...........	-327.66
	75	0.152	-5.78620E-001	-5.24941E-006	0.00000E+000	-5.79550E-001	1.45229E-003	7	...........	-327.66
	76	0.154	-5.88686E-001	-5.23743E-006	0.00000E+000	-5.89550E-001	1.44195E-003	7	...........	-327.66
	77	0.156	-5.98566E-001	-5.21912E-006	0.00000E+000	-5.99550E-001	1.47298E-003	7	...........	-327.66
	78	0.158	-6.08686E-001	-5.19634E-006	0.00000E+000	-6.09550E-001	1.44022E-003	7	...........	-327.66
	79	0.16	-6.18639E-001	-5.16397E-006	0.00000E+000	-6.19550E-001	1.40747E-003	7	...........	-327.66
	80	0.162	-6.28570E-001	-5.12476E-006	0.00000E+000	-6.29550E-001	1.41436E-003	7	...........	-327.66
	81	0.164	-6.38614E-001	-5.07185E-006	0.00000E+000	-6.39550E-001	1.37988E-003	7	...........	-327.66
	82	0.166	-6.48646E-001	-5.00854E-006	0.00000E+000	-6.49550E-001	1.43505E-003	7	...........	-327.66
	83	0.168	-6.58625E-001	-4.92984E-006	0.00000E+000	-6.59550E-001	1.39884E-003	7	...........	-327.66
	84	0.17	-6.68623E-001	-4.83425E-006	0.00000E+000	-6.69550E-001	1.38850E-003	7	...........	-327.66
	85	0.172	-6.78578E-001	-4.72341E-006	0.00000E+000	-6.79550E-001	1.46781E-003	7	...........	-327.66
	86	0.174	-6.88675E-001	-4.59498E-006	0.00000E+000	-6.89550E-001	1.45919E-003	7	...........	-327.66
	87	0.176	-6.98630E-001	-4.44572E-006	0.00000E+000	-6.99550E-001	1.47298E-003	7	...........	-327.66
	88	0.178	-7.08640E-001	-4.27744E-006	0.00000E+000	-7.09550E-001	1.41264E-003	7	...........	-327.66
	89	0.18	-7.18623E-001	-4.09243E-006	0.00000E+000	-7.19550E-001	1.42471E-003	7	...........	-327.66
	90	0.182	-7.28657E-001	-3.89256E-006	0.00000E+000	-7.29550E-001	1.40229E-003	7	...........	-327.66
	91	0.184	-7.38645E-001	-3.67965E-006	0.00000E+000	-7.39550E-001	1.42471E-003	7	...........	-327.66
	92	0.186	-7.48672E-001	-3.45574E-006	0.00000E+000	-7.49550E-001	1.41953E-003	7	...........	-327.66
	93	0.188	-7.58617E-001	-3.22521E-006	0.00000E+000	-7.59550E-001	1.40574E-003	7	...........	-327.66
	94	0.19	-7.68685E-001	-2.99442E-006	0.00000E+000	-7.69550E-001	1.49022E-003	7	...........	-327.66
	95	0.192	-7.78574E-001	-2.76576E-006	0.00000E+000	-7.79550E-001	1.45057E-003	7	...........	-327.66
	96	0.194	-7.88661E-001	-2.54373E-006	0.00000E+000	-7.89550E-001	1.40747E-003	7	...........	-327.66
	97	0.196	-7.98618E-001	-2.33338E-006	0.00000E+000	-7.99550E-001	1.43333E-003	7	...........	-327.66
	98	0.198	-8.08623E-001	-2.13801E-006	0.00000E+000	-8.09550E-001	1.49712E-003	7	...........	-327.66
	99	0.2	-8.18682E-001	-1.95679E-006	0.00000E+000	-8.19550E-001	1.47126E-003	7	...........	-327.66
	100	0.202	-8.28666E-001	-1.79649E-006	0.00000E+000	-8.29550E-001	1.41781E-003	7	...........	-327.66
	101	0.204	-8.38658E-001	-1.65420E-006	0.00000E+000	-8.39550E-001	1.47815E-003	7	...........	-327.66
	102	0.206	-8.48714E-001	-1.53023E-006	0.00000E+000	-8.49550E-001	1.38333E-003	7	...........	-327.66
	103	0.208	-8.58603E-001	-1.42162E-006	0.00000E+000	-8.59550E-001	1.43333E-003	7	...........	-327.66
	104	0.21	-8.68659E-001	-1.32817E-006	0.00000E+000	-8.69550E-001	1.49195E-003	7	...........	-327.66
	105	0.212	-8.78609E-001	-1.24375E-006	0.00000E+000	-8.79550E-001	1.38678E-003	7	...........	-327.66
	106	0.214	-8.88673E-001	-1.17184E-006	0.00000E+000	-8.89550E-001	1.37298E-003	7	...........	-327.66
	107	0.216	-8.98656E-001	-1.10693E-006	0.00000E+000	-8.99550E-001	1.42815E-003	7	...........	-327.66
	108	0.218	-8.90229E-001	-9.72261E-007	0.00000E+000	-8.89550E-001	1.46436E-003	7	...........	-327.66
	109	0.22	-8.80193E-001	-8.77507E-007	0.00000E+000	-8.79550E-001	1.42988E-003	7	...........	-327.66
	110	0.222	-8.70241E-001	-8.07136E-007	0.00000E+000	-8.69550E-001	1.46436E-003	7	...........	-327.66
	111	0.224	-8.60247E-001	-7.43541E-007	0.00000E+000	-8.59550E-001	1.48850E-003	7	...........	-327.66
	112	0.226	-8.50250E-001	-6.92465E-007	0.00000E+000	-8.49550E-001	1.40057E-003	7	...........	-327.66
	113	0.228	-8.40218E-001	-6.45338E-007	0.00000E+000	-8.39550E-001	1.47471E-003	7	...........	-327.66
	114	0.23	-8.30207E-001	-6.01176E-007	0.00000E+000	-8.29550E-001	1.46781E-003	7	...........	-327.66
	115	0.232	-8.20231E-001	-5.58446E-007	0.00000E+000	-8.19550E-001	1.36953E-003	7	...........	-327.66
	116	0.234	-8.10177E-001	-5.17268E-007	0.00000E+000	-8.09550E-001	1.41781E-003	7	...........	-327.66
	117	0.236	-8.00127E-001	-4.77039E-007	0.00000E+000	-7.99550E-001	1.48333E-003	7	...........	-327.66
	118	0.238	-7.90222E-001	-4.36206E-007	0.00000E+000	-7.89550E-001	1.41953E-003	7	...........	-327.66
	119	0.24	-7.80081E-001	-3.92182E-007	0.00000E+000	-7.79550E-001	1.39367E-003	7	...........	-327.66
	120	0.242	-7.70219E-001	-3.46814E-007	0.00000E+000	-7.69550E-001	1.40057E-003	7	...........	-327.66
	121	0.244	-7.60195E-001	-2.99239E-007	0.00000E+000	-7.59550E-001	1.42471E-003	7	...........	-327.66
	122	0.246	-7.50286E-001	-2.47852E-007	0.00000E+000	-7.49550E-001	1.45229E-003	7	...........	-327.66
	123	0.248	-7.40283E-001	-1.91120E-007	0.00000E+000	-7.39550E-001	1.42298E-003	7	...........	-327.66
	124	0.25	-7.30277E-001	-1.28664E-007	0.00000E+000	-7.29550E-001	1.39712E-003	7	...........	-327.66
	125	0.252	-7.20211E-001	-6.06027E-008	0.00000E+000	-7.19550E-001	1.43678E-003	7	...........	-327.66
	126	0.254	-7.10273E-001	1.60974E-008	0.00000E+000	-7.09550E-001	1.44884E-003	7	...........	-327.66
	127	0.256	-7.00233E-001	9.90743E-008	0.00000E+000	-6.99550E-001	1.41264E-003	7	...........	-327.66
	128	0.258	-6.90261E-001	1.94242E-007	0.00000E+000	-6.89550E-001	1.41091E-003	7	...........	-327.66
	129	0.26	-6.80192E-001	2.99067E-007	0.00000E+000	-6.79550E-001	1.39195E-003	7	...........	-327.66
	130	0.262	-6.70271E-001	4.15583E-007	0.00000E+000	-6.69550E-001	1.44022E-003	7	...........	-327.66
	131	0.264	-6.60264E-001	5.44894E-007	0.00000E+000	-6.59550E-001	1.47815E-003	7	...........	-327.66
	132	0.266	-6.50259E-001	6.89931E-007	0.00000E+000	-6.49550E-001	1.46953E-003	7	...........	-327.66
	133	0.268	-6.40256E-001	8.50056E-007	0.00000E+000	-6.39550E-001	1.46609E-003	7	...........	-327.66
	134	0.27	-6.30211E-001	1.02456E-006	0.00000E+000	-6.29550E-001	1.44540E-003	7	...........	-327.66
	135	0.272	-6.20219E-001	1.21747E-006	0.00000E+000	-6.19550E-001	1.40057E-003	7	...........	-327.66
	136	0.274	-6.10295E-001	1.43167E-006	0.00000E+000	-6.09550E-001	1.47815E-003	7	...........	-327.66
	137	0.276	-6.00186E-001	1.66184E-006	0.00000E+000	-5.99550E-001	1.46264E-003	7	...........	-327.66
	138	0.278	-5.90319E-001	1.91148E-006	0.00000E+000	-5.89550E-001	1.41264E-003	7	...........	-327.66
	139	0.28	-5.80290E-001	2.18246E-006	0.00000E+000	-5.79550E-001	1.44022E-003	7	...........	-327.66
	140	0.282	-5.70313E-001	2.47055E-006	0.00000E+000	-5.69550E-001	1.38678E-003	7	...........	-327.66
	141	0.284	-5.60338E-001	2.77632E-006	0.00000E+000	-5.59550E-001	1.41609E-003	7	...........	-327.66
	142	0.286	-5.50310E-001	3.09450E-006	0.00000E+000	-5.49550E-001	1.39195E-003	7	...........	-327.66
	143	0.288	-5.40339E-001	3.42263E-006	0.00000E+000	-5.39550E-001	1.46264E-003	7	...........	-327.66
	144	0.29	-5.30311E-001	3.75433E-006	0.00000E+000	-5.29550E-001	1.44712E-003	7	...........	-327.66
	145	0.292	-5.20279E-001	4.07979E-006	0.00000E+000	-5.19550E-001	1.42643E-003	7	...........	-327.66
	146	0.294	-5.10336E-001	4.38640E-006	0.00000E+000	-5.09550E-001	1.45402E-003	7	...........	-327.66
	147	0.296	-5.00276E-001	4.66442E-006	0.00000E+000	-4.99550E-001	1.39884E-003	7	...........	-327.66
	148	0.298	-4.90294E-001	4.90125E-006	0.00000E+000	-4.89550E-001	1.41609E-003	7	...........	-327.66
	149	0.3	-4.80290E-001	5.08293E-006	0.00000E+000	-4.79550E-001	1.48505E-003	7	...........	-327.66
	150	0.302	-4.70347E-001	5.20858E-006	0.00000E+000	-4.69550E-001	1.46091E-003	7	...........	-327.66
	151	0.304	-4.60335E-001	5.28192E-006	0.00000E+000	-4.59550E-001	1.42298E-003	7	...........	-327.66
	152	0.306	-4.50311E-001	5.30778E-006	0.00000E+000	-4.49550E-001	1.42126E-003	7	...........	-327.66
	153	0.308	-4.40262E-001	5.29261E-006	0.00000E+000	-4.39550E-001	1.42815E-003	7	...........	-327.66
	154	0.31	-4.30316E-001	5.24717E-006	0.00000E+000	-4.29550E-001	1.38333E-003	7	...........	-327.66
	155	0.312	-4.20292E-001	5.18425E-006	0.00000E+000	-4.19550E-001	1.40402E-003	7	...........	-327.66
	156	0.314	-4.10355E-001	5.10955E-006	0.00000E+000	-4.09550E-001	1.36264E-003	7	...........	-327.66
	157	0.316	-4.00310E-001	5.03188E-006	0.00000E+000	-3.99550E-001	1.39022E-003	7	...........	-327.66
	158	0.318	-3.90375E-001	4.95531E-006	0.00000E+000	-3.89550E-001	1.45747E-003	7	...........	-327.66
	159	0.32	-3.80354E-001	4.88152E-006	0.00000E+000	-3.79550E-001	1.46264E-003	7	...........	-327.66
	160	0.322	-3.70309E-001	4.81668E-006	0.00000E+000	-3.69550E-001	1.46781E-003	7	...........	-327.66
	161	0.324	-3.60311E-001	4.75785E-006	0.00000E+000	-3.59550E-001	1.42988E-003	7	...........	-327.66
	162	0.326	-3.50329E-001	4.70472E-006	0.00000E+000	-3.49550E-001	1.41436E-003	7	...........	-327.66
	163	0.328	-3.40314E-001	4.66014E-006	0.00000E+000	-3.39550E-001	1.41781E-003	7	...........	-327.66
	164	0.33	-3.30333E-001	4.62231E-006	0.00000E+000	-3.29550E-001	1.47643E-003	7	...........	-327.66
	165	0.332	-3.20279E-001	4.58781E-006	0.00000E+000	-3.19550E-001	1.37988E-003	7	...........	-327.66
	166	0.334	-3.10359E-001	4.55910E-006	0.00000E+000	-3.09550E-001	1.47471E-003	7	...........	-327.66
	167	0.336	-3.00334E-001	4.53556E-006	0.00000E+000	-2.99550E-001	1.47471E-003	7	...........	-327.66
	168	0.338	-2.90355E-001	4.51604E-006	0.00000E+000	-2.89550E-001	1.39712E-003	7	...........	-327.66
	169	0.34	-2.80321E-001	4.50055E-006	0.00000E+000	-2.79550E-001	1.39712E-003	7	...........	-327.66
	170	0.342	-2.70264E-001	4.48538E-006	0.00000E+000	-2.69550E-001	1.47643E-003	7	...........	-327.66
	171	0.344	-2.60336E-001	4.47450E-006	0.00000E+000	-2.59550E-001	1.40574E-003	7	...........	-327.66
	172	0.346	-2.50355E-001	4.46300E-006	0.00000E+000	-2.49550E-001	1.39022E-003	7	...........	-327.66
	173	0.348	-2.40275E-001	4.45369E-006	0.00000E+000	-2.39550E-001	1.48333E-003	7	...........	-327.66
	174	0.35	-2.30368E-001	4.44330E-006	0.00000E+000	-2.29550E-001	1.42988E-003	7	...........	-327.66
	175	0.352	-2.20320E-001	4.43373E-006	0.00000E+000	-2.19550E-001	1.37298E-003	7	...........	-327.66
	176	0.354	-2.10345E-001	4.42432E-006	0.00000E+000	-2.09550E-001	1.41436E-003	7	...........	-327.66
	177	0.356	-2.00356E-001	4.41537E-006	0.00000E+000	-1.99550E-001	1.47643E-003	7	...........	-327.66
	178	0.358	-1.90331E-001	4.40621E-006	0.00000E+000	-1.89550E-001	1.44884E-003	7	...........	-327.66
	179	0.36	-1.80391E-001	4.39844E-006	0.00000E+000	-1.79550E-001	1.45919E-003	7	...........	-327.66
	180	0.362	-1.70354E-001	4.39006E-006	0.00000E+000	-1.69550E-001	1.44540E-003	7	...........	-327.66
	181	0.364	-1.60330E-001	4.38223E-006	0.00000E+000	-1.59550E-001	1.48505E-003	7	...........	-327.66
	182	0.366	-1.50386E-001	4.37552E-006	0.00000E+000	-1.49550E-001	1.50919E-003	7	...........	-327.66
	183	0.368	-1.40305E-001	4.37036E-006	0.00000E+000	-1.39550E-001	1.42988E-003	7	...........	-327.66
	184	0.37	-1.30399E-001	4.36400E-006	0.00000E+000	-1.29550E-001	1.45402E-003	7	...........	-327.66
	185	0.372	-1.20353E-001	4.35974E-006	0.00000E+000	-1.19550E-001	1.44022E-003	7	...........	-327.66
	186	0.374	-1.10377E-001	4.35277E-006	0.00000E+000	-1.09550E-001	1.44367E-003	7	...........	-327.66
	187	0.376	-1.00372E-001	4.34853E-006	0.00000E+000	-9.95500E-002	1.46264E-003	7	...........	-327.66
	188	0.378	-9.03830E-002	4.34389E-006	0.00000E+000	-8.95500E-002	1.44540E-003	7	...........	-327.66
	189	0.38	-8.03460E-002	4.33970E-006	0.00000E+000	-7.95500E-002	1.42471E-003	7	...........	-327.66
	190	0.382	-7.03511E-002	4.33429E-006	0.00000E+000	-6.95500E-002	1.40747E-003	7	...........	-327.66
	191	0.384	-6.03261E-002	4.32934E-006	0.00000E+000	-5.95500E-002	1.38333E-003	7	...........	-327.66
	192	0.386	-5.03873E-002	4.32444E-006	0.00000E+000	-4.95500E-002	1.43505E-003	7	...........	-327.66
	193	0.388	-4.03141E-002	4.31924E-006	0.00000E+000	-3.95500E-002	1.50574E-003	7	...........	-327.66
	194	0.39	-3.03718E-002	4.31229E-006	0.00000E+000	-2.95500E-002	1.47126E-003	7	...........	-327.66
	195	0.392	-2.03770E-002	4.30635E-006	0.00000E+000	-1.95500E-002	1.43160E-003	7	...........	-327.66
	196	0.394	-1.03606E-002	4.29866E-006	0.00000E+000	-9.55001E-003	1.35402E-003	7	...........	-327.66
	197	0.396	-3.26141E-004	4.29335E-006	0.00000E+000	4.49985E-004	1.40057E-003	7	...........	-327.66
	198	0.398	9.65662E-003	4.28530E-006	0.00000E+000	1.04500E-002	1.44712E-003	7	...........	-327.66
	199	0.4	1.96851E-002	4.27745E-006	0.00000E+000	2.04500E-002	1.43505E-003	7	...........	-327.66
	200	0.402	2.96506E-002	4.26926E-006	0.00000E+000	3.04500E-002	1.50057E-003	7	...........	-327.66
	201	0.404	3.97075E-002	4.26078E-006	0.00000E+000	4.04500E-002	1.39022E-003	7	...........	-327.66
	202	0.406	4.96652E-002	4.25086E-006	0.00000E+000	5.04500E-002	1.46091E-003	7	...........	-327.66
	203	0.408	5.96497E-002	4.24197E-006	0.00000E+000	6.04500E-002	1.39195E-003	7	...........	-327.66
	204	0.41	6.96661E-002	4.23031E-006	0.00000E+000	7.04500E-002	1.39884E-003	7	...........	-327.66
	205	0.412	7.96549E-002	4.21951E-006	0.00000E+000	8.04500E-002	1.44540E-003	7	...........	-327.66
	206	0.414	8.96601E-002	4.20977E-006	0.00000E+000	9.04500E-002	1.47815E-003	7	...........	-327.66
	207	0.416	9.96592E-002	4.19815E-006	0.00000E+000	1.00450E-001	1.43333E-003	7	...........	-327.66
	208	0.418	1.09664E-001	4.18725E-006	0.00000E+000	1.10450E-001	1.42988E-003	7	...........	-327.66
	209	0.42	1.19702E-001	4.17470E-006	0.00000E+000	1.20450E-001	1.42471E-003	7	...........	-327.66
	210	0.422	1.29654E-001	4.16199E-006	0.00000E+000	1.30450E-001	1.44367E-003	7	...........	-327.66
	211	0.424	1.39674E-001	4.14997E-006	0.00000E+000	1.40450E-001	1.42298E-003	7	...........	-327.66
	212	0.426	1.49685E-001	4.13728E-006	0.00000E+000	1.50450E-001	1.47298E-003	7	...........	-327.66
	213	0.428	1.59674E-001	4.12492E-006	0.00000E+000	1.60450E-001	1.47988E-003	7	...........	-327.66
	214	0.43	1.69654E-001	4.11245E-006	0.00000E+000	1.70450E-001	1.44540E-003	7	...........	-327.66
	215	0.432	1.79651E-001	4.10081E-006	0.00000E+000	1.80450E-001	1.46609E-003	7	...........	-327.66
	216	0.434	1.89664E-001	4.08750E-006	0.00000E+000	1.90450E-001	1.43678E-003	7	...........	-327.66
	217	0.436	1.99712E-001	4.07568E-006	0.00000E+000	2.00450E-001	1.41264E-003	7	...........	-327.66
	218	0.438	2.09626E-001	4.06180E-006	0.00000E+000	2.10450E-001	1.41091E-003	7	...........	-327.66
	219	0.44	2.19667E-001	4.04996E-006	0.00000E+000	2.20450E-001	1.41264E-003	7	...........	-327.66
	220	0.442	2.29645E-001	4.03685E-006	0.00000E+000	2.30450E-001	1.46091E-003	7	...........	-327.66
	221	0.444	2.39646E-001	4.02540E-006	0.00000E+000	2.40450E-001	1.44022E-003	7	...........	-327.66
	222	0.446	2.49622E-001	4.01363E-006	0.00000E+000	2.50450E-001	1.40402E-003	7	...........	-327.66
	223	0.448	2.59609E-001	4.00031E-006	0.00000E+000	2.60450E-001	1.43678E-003	7	...........	-327.66
	224	0.45	2.69600E-001	3.99060E-006	0.00000E+000	2.70450E-001	1.48333E-003	7	...........	-327.66
	225	0.452	2.79639E-001	3.98126E-006	0.00000E+000	2.80450E-001	1.41436E-003	7	...........	-327.66
	226	0.454	2.89639E-001	3.96920E-006	0.00000E+000	2.90450E-001	1.43850E-003	7	...........	-327.66
	227	0.456	2.99656E-001	3.95989E-006	0.00000E+000	3.00450E-001	1.46609E-003	7	...........	-327.66
	228	0.458	3.09627E-001	3.95194E-006	0.00000E+000	3.10450E-001	1.46436E-003	7	...........	-327.66
	229	0.46	3.19660E-001	3.94327E-006	0.00000E+000	3.20450E-001	1.48333E-003	7	...........	-327.66
	230	0.462	3.29641E-001	3.93525E-006	0.00000E+000	3.30450E-001	1.44367E-003	7	...........	-327.66
	231	0.464	3.39615E-001	3.92937E-006	0.00000E+000	3.40450E-001	1.46953E-003	7	...........	-327.66
	232	0.466	3.49639E-001	3.92335E-006	0.00000E+000	3.50450E-001	1.44540E-003	7	...........	-327.66
	233	0.468	3.59645E-001	3.91954E-006	0.00000E+000	3.60450E-001	1.40229E-003	7	...........	-327.66
	234	0.47	3.69655E-001	3.91537E-006	0.00000E+000	3.70450E-001	1.40574E-003	7	...........	-327.66
	235	0.472	3.79624E-001	3.91328E-006	0.00000E+000	3.80450E-001	1.41264E-003	7	...........	-327.66
	236	0.474	3.89626E-001	3.91028E-006	0.00000E+000	3.90450E-001	1.41609E-003	7	...........	-327.66
	237	0.476	3.99690E-001	3.91059E-006	0.00000E+000	4.00450E-001	1.46264E-003	7	...........	-327.66
	238	0.478	4.09626E-001	3.91073E-006	0.00000E+000	4.10450E-001	1.42471E-003	7	...........	-327.66
	239	0.48	4.19609E-001	3.91303E-006	0.00000E+000	4.20450E-001	1.45747E-003	7	...........	-327.66
	240	0.482	4.29605E-001	3.91604E-006	0.00000E+000	4.30450E-001	1.44540E-003	7	...........	-327.66
	241	0.484	4.39595E-001	3.92006E-006	0.00000E+000	4.40450E-001	1.43505E-003	7	...........	-327.66
	242	0.486	4.49629E-001	3.92518E-006	0.00000E+000	4.50450E-001	1.40919E-003	7	...........	-327.66
	243	0.488	4.59624E-001	3.93156E-006	0.00000E+000	4.60450E-001	1.49367E-003	7	...........	-327.66
	244	0.49	4.69604E-001	3.93893E-006	0.00000E+000	4.70450E-001	1.42815E-003	7	...........	-327.66
	245	0.492	4.79646E-001	3.94798E-006	0.00000E+000	4.80450E-001	1.46609E-003	7	...........	-327.66
	246	0.494	4.89604E-001	3.95715E-006	0.00000E+000	4.90450E-001	1.40747E-003	7	...........	-327.66
	247	0.496	4.99682E-001	3.96883E-006	0.00000E+000	5.00450E-001	1.41264E-003	7	...........	-327.66
	248	0.498	5.09582E-001	3.98026E-006	0.00000E+000	5.10450E-001	1.46264E-003	7	...........	-327.66
	249	0.5	5.19617E-001	3.99321E-006	0.00000E+000	5.20450E-001	1.45402E-003	7	...........	-327.66
	250	0.502	5.29613E-001	4.00569E-006	0.00000E+000	5.30450E-001	1.45402E-003	7	...........	-327.66
	251	0.504	5.39610E-001	4.02083E-006	0.00000E+000	5.40450E-001	1.42126E-003	7	...........	-327.66
	252	0.506	5.49626E-001	4.03792E-006	0.00000E+000	5.50450E-001	1.48160E-003	7	...........	-327.66
	253	0.508	5.59614E-001	4.05642E-006	0.00000E+000	5.60450E-001	1.44712E-003	7	...........	-327.66
	254	0.51	5.69616E-001	4.07612E-006	0.00000E+000	5.70450E-001	1.39195E-003	7	...........	-327.66
	255	0.512	5.79612E-001	4.09790E-006	0.00000E+000	5.80450E-001	1.37988E-003	7	...........	-327.66
	256	0.514	5.89610E-001	4.12202E-006	0.00000E+000	5.90450E-001	1.37988E-003	7	...........	-327.66
	257	0.516	5.99627E-001	4.14838E-006	0.00000E+000	6.00450E-001	1.41609E-003	7	...........	-327.66
CURVE2	TABLE
	Pt	T	Vf	Im	Vu	Sig	Ach	IERange	Over	Temp
	#	s	V vs. Ref.	A	V	V	V	#	bits	deg C
	258	0.518	5.90789E-001	2.79389E-006	0.00000E+000	5.90000E-001	1.40229E-003	7	...........	-327.66
	259	0.52	5.80777E-001	2.10619E-006	0.00000E+000	5.80000E-001	1.41264E-003	7	...........	-327.66
	260	0.522	5.70734E-001	1.59968E-006	0.00000E+000	5.70000E-001	1.45919E-003	7	...........	-327.66
	261	0.524	5.60757E-001	1.18498E-006	0.00000E+000	5.60000E-001	1.44195E-003	7	...........	-327.66
	262	0.526	5.50783E-001	8.29915E-007	0.00000E+000	5.50000E-001	1.43160E-003	7	...........	-327.66
	263	0.528	5.40777E-001	5.15700E-007	0.00000E+000	5.40000E-001	1.41264E-003	7	...........	-327.66
	264	0.53	5.30808E-001	2.36541E-007	0.00000E+000	5.30000E-001	1.43678E-003	7	...........	-327.66
	265	0.532	5.20749E-001	-1.68726E-008	0.00000E+000	5.20000E-001	1.42988E-003	7	...........	-327.66
	266	0.534	5.10767E-001	-2.49318E-007	0.00000E+000	5.10000E-001	1.39540E-003	7	...........	-327.66
	267	0.536	5.00824E-001	-4.61864E-007	0.00000E+000	5.00000E-001	1.44367E-003	7	...........	-327.66
	268	0.538	4.90779E-001	-6.57943E-007	0.00000E+000	4.90000E-001	1.40747E-003	7	...........	-327.66
	269	0.54	4.80766E-001	-8.39726E-007	0.00000E+000	4.80000E-001	1.46953E-003	7	...........	-327.66
	270	0.542	4.70782E-001	-1.00839E-006	0.00000E+000	4.70000E-001	1.49712E-003	7	...........	-327.66
	271	0.544	4.60785E-001	-1.16722E-006	0.00000E+000	4.60000E-001	1.39884E-003	7	...........	-327.66
	272	0.546	4.50804E-001	-1.31457E-006	0.00000E+000	4.50000E-001	1.44367E-003	7	...........	-327.66
	273	0.548	4.40772E-001	-1.45391E-006	0.00000E+000	4.40000E-001	1.52126E-003	7	...........	-327.66
	274	0.55	4.30787E-001	-1.58295E-006	0.00000E+000	4.30000E-001	1.48160E-003	7	...........	-327.66
	275	0.552	4.20805E-001	-1.70567E-006	0.00000E+000	4.20000E-001	1.38678E-003	7	...........	-327.66
	276	0.554	4.10770E-001	-1.82150E-006	0.00000E+000	4.10000E-001	1.39367E-003	7	...........	-327.66
	277	0.556	4.00807E-001	-1.93163E-006	0.00000E+000	4.00000E-001	1.42126E-003	7	...........	-327.66
	278	0.558	3.90776E-001	-2.03582E-006	0.00000E+000	3.90000E-001	1.36953E-003	7	...........	-327.66
	279	0.56	3.80805E-001	-2.13392E-006	0.00000E+000	3.80000E-001	1.41436E-003	7	...........	-327.66
	280	0.562	3.70830E-001	-2.22685E-006	0.00000E+000	3.70000E-001	1.46781E-003	7	...........	-327.66
	281	0.564	3.60782E-001	-2.31807E-006	0.00000E+000	3.60000E-001	1.40919E-003	7	...........	-327.66
	282	0.566	3.50834E-001	-2.40259E-006	0.00000E+000	3.50000E-001	1.42298E-003	7	...........	-327.66
	283	0.568	3.40816E-001	-2.48455E-006	0.00000E+000	3.40000E-001	1.52471E-003	7	...........	-327.66
	284	0.57	3.30826E-001	-2.56225E-006	0.00000E+000	3.30000E-001	1.45229E-003	7	...........	-327.66
	285	0.572	3.20802E-001	-2.63797E-006	0.00000E+000	3.20000E-001	1.39540E-003	7	...........	-327.66
	286	0.574	3.10787E-001	-2.71048E-006	0.00000E+000	3.10000E-001	1.39367E-003	7	...........	-327.66
	287	0.576	3.00815E-001	-2.78044E-006	0.00000E+000	3.00000E-001	1.48505E-003	7	...........	-327.66
	288	0.578	2.90806E-001	-2.84731E-006	0.00000E+000	2.90000E-001	1.39712E-003	7	...........	-327.66
	289	0.58	2.80770E-001	-2.91285E-006	0.00000E+000	2.80000E-001	1.35229E-003	7	...........	-327.66
	290	0.582	2.70865E-001	-2.97567E-006	0.00000E+000	2.70000E-001	1.43505E-003	7	...........	-327.66
	291	0.584	2.60804E-001	-3.03704E-006	0.00000E+000	2.60000E-001	1.44195E-003	7	...........	-327.66
	292	0.586	2.50832E-001	-3.09495E-006	0.00000E+000	2.50000E-001	1.42815E-003	7	...........	-327.66
	293	0.588	2.40812E-001	-3.15346E-006	0.00000E+000	2.40000E-001	1.38850E-003	7	...........	-327.66
	294	0.59	2.30807E-001	-3.20907E-006	0.00000E+000	2.30000E-001	1.44540E-003	7	...........	-327.66
	295	0.592	2.20816E-001	-3.26426E-006	0.00000E+000	2.20000E-001	1.42643E-003	7	...........	-327.66
	296	0.594	2.10805E-001	-3.31718E-006	0.00000E+000	2.10000E-001	1.39195E-003	7	...........	-327.66
	297	0.596	2.00819E-001	-3.36955E-006	0.00000E+000	2.00000E-001	1.37643E-003	7	...........	-327.66
	298	0.598	1.90839E-001	-3.41959E-006	0.00000E+000	1.90000E-001	1.37643E-003	7	...........	-327.66
	299	0.6	1.80844E-001	-3.46955E-006	0.00000E+000	1.80000E-001	1.39712E-003	7	...........	-327.66
	300	0.602	1.70877E-001	-3.51837E-006	0.00000E+000	1.70000E-001	1.39884E-003	7	...........	-327.66
	301	0.604	1.60822E-001	-3.56658E-006	0.00000E+000	1.60000E-001	1.38333E-003	7	...........	-327.66
	302	0.606	1.50836E-001	-3.61238E-006	0.00000E+000	1.50000E-001	1.37988E-003	7	...........	-327.66
	303	0.608	1.40882E-001	-3.65913E-006	0.00000E+000	1.40000E-001	1.44884E-003	7	...........	-327.66
	304	0.61	1.30869E-001	-3.70232E-006	0.00000E+000	1.30000E-001	1.44367E-003	7	...........	-327.66
	305	0.612	1.20826E-001	-3.74762E-006	0.00000E+000	1.20000E-001	1.41264E-003	7	...........	-327.66
	306	0.614	1.10835E-001	-3.78977E-006	0.00000E+000	1.10000E-001	1.41436E-003	7	...........	-327.66
	307	0.616	1.00815E-001	-3.83155E-006	0.00000E+000	1.00000E-001	1.46091E-003	7	...........	-327.66
	308	0.618	9.09023E-002	-3.87274E-006	0.00000E+000	9.00000E-002	1.46436E-003	7	...........	-327.66
	309	0.62	8.08006E-002	-3.91237E-006	0.00000E+000	8.00000E-002	1.43678E-003	7	...........	-327.66
	310	0.622	7.08282E-002	-3.95193E-006	0.00000E+000	7.00000E-002	1.43505E-003	7	...........	-327.66
	311	0.624	6.08583E-002	-3.98976E-006	0.00000E+000	6.00000E-002	1.43850E-003	7	...........	-327.66
	312	0.626	5.08264E-002	-4.02663E-006	0.00000E+000	5.00000E-002	1.45057E-003	7	...........	-327.66
	313	0.628	4.08394E-002	-4.06430E-006	0.00000E+000	4.00000E-002	1.50402E-003	7	...........	-327.66
	314	0.63	3.08368E-002	-4.09995E-006	0.00000E+000	3.00000E-002	1.47643E-003	7	...........	-327.66
	315	0.632	2.08377E-002	-4.13414E-006	0.00000E+000	2.00000E-002	1.39022E-003	7	...........	-327.66
	316	0.634	1.08463E-002	-4.16751E-006	0.00000E+000	9.99999E-003	1.39884E-003	7	...........	-327.66
	317	0.636	8.08342E-004	-4.20122E-006	0.00000E+000	-1.49012E-008	1.40574E-003	7	...........	-327.66
	318	0.638	-9.14252E-003	-4.23372E-006	0.00000E+000	-1.00000E-002	1.43505E-003	7	...........	-327.66
	319	0.64	-1.91598E-002	-4.26481E-006	0.00000E+000	-2.00000E-002	1.47298E-003	7	...........	-327.66
	320	0.642	-2.91554E-002	-4.29520E-006	0.00000E+000	-3.00000E-002	1.42815E-003	7	...........	-327.66
	321	0.644	-3.91408E-002	-4.32651E-006	0.00000E+000	-4.00000E-002	1.46609E-003	7	...........	-327.66
	322	0.646	-4.91917E-002	-4.35498E-006	0.00000E+000	-5.00000E-002	1.42471E-003	7	...........	-327.66
	323	0.648	-5.91537E-002	-4.38386E-006	0.00000E+000	-6.00000E-002	1.36609E-003	7	...........	-327.66
	324	0.65	-6.91330E-002	-4.41082E-006	0.00000E+000	-7.00000E-002	1.39195E-003	7	...........	-327.66
	325	0.652	-7.91848E-002	-4.43716E-006	0.00000E+000	-8.00000E-002	1.36609E-003	7	...........	-327.66
	326	0.654	-8.91330E-002	-4.46355E-006	0.00000E+000	-9.00000E-002	1.40229E-003	7	...........	-327.66
	327	0.656	-9.91598E-002	-4.48924E-006	0.00000E+000	-1.00000E-001	1.43505E-003	7	...........	-327.66
	328	0.658	-1.09149E-001	-4.51336E-006	0.00000E+000	-1.10000E-001	1.47471E-003	7	...........	-327.66
	329	0.66	-1.19172E-001	-4.53633E-006	0.00000E+000	-1.20000E-001	1.43850E-003	7	...........	-327.66
	330	0.662	-1.29186E-001	-4.55939E-006	0.00000E+000	-1.30000E-001	1.50402E-003	7	...........	-327.66
	331	0.664	-1.39110E-001	-4.58048E-006	0.00000E+000	-1.40000E-001	1.41436E-003	7	...........	-327.66
	332	0.666	-1.49185E-001	-4.60146E-006	0.00000E+000	-1.50000E-001	1.39195E-003	7	...........	-327.66
	333	0.668	-1.59185E-001	-4.62190E-006	0.00000E+000	-1.60000E-001	1.45919E-003	7	...........	-327.66
	334	0.67	-1.69130E-001	-4.64009E-006	0.00000E+000	-1.70000E-001	1.45229E-003	7	...........	-327.66
	335	0.672	-1.79180E-001	-4.65859E-006	0.00000E+000	-1.80000E-001	1.50574E-003	7	...........	-327.66
	336	0.674	-1.89122E-001	-4.67544E-006	0.00000E+000	-1.90000E-001	1.43678E-003	7	...........	-327.66
	337	0.676	-1.99186E-001	-4.69327E-006	0.00000E+000	-2.00000E-001	1.39884E-003	7	...........	-327.66
	338	0.678	-2.09142E-001	-4.70780E-006	0.00000E+000	-2.10000E-001	1.47988E-003	7	...........	-327.66
	339	0.68	-2.19086E-001	-4.72288E-006	0.00000E+000	-2.20000E-001	1.50574E-003	7	...........	-327.66
	340	0.682	-2.29144E-001	-4.73598E-006	0.00000E+000	-2.30000E-001	1.43850E-003	7	...........	-327.66
	341	0.684	-2.39165E-001	-4.74853E-006	0.00000E+000	-2.40000E-001	1.38850E-003	7	...........	-327.66
	342	0.686	-2.49130E-001	-4.75997E-006	0.00000E+000	-2.50000E-001	1.37988E-003	7	...........	-327.66
	343	0.688	-2.59153E-001	-4.77128E-006	0.00000E+000	-2.60000E-001	1.44195E-003	7	...........	-327.66
	344	0.69	-2.69087E-001	-4.77952E-006	0.00000E+000	-2.70000E-001	1.42988E-003	7	...........	-327.66
	345	0.692	-2.79186E-001	-4.78883E-006	0.00000E+000	-2.80000E-001	1.43850E-003	7	...........	-327.66
	346	0.694	-2.89141E-001	-4.79644E-006	0.00000E+000	-2.90000E-001	1.48850E-003	7	...........	-327.66
	347	0.696	-2.99130E-001	-4.80209E-006	0.00000E+000	-3.00000E-001	1.42298E-003	7	...........	-327.66
	348	0.698	-3.09128E-001	-4.80642E-006	0.00000E+000	-3.10000E-001	1.48505E-003	7	...........	-327.66
	349	0.7	-3.19124E-001	-4.81096E-006	0.00000E+000	-3.20000E-001	1.43333E-003	7	...........	-327.66
	350	0.702	-3.29167E-001	-4.81385E-006	0.00000E+000	-3.30000E-001	1.40747E-003	7	...........	-327.66
	351	0.704	-3.39149E-001	-4.81651E-006	0.00000E+000	-3.40000E-001	1.48505E-003	7	...........	-327.66
	352	0.706	-3.49132E-001	-4.81649E-006	0.00000E+000	-3.50000E-001	1.43505E-003	7	...........	-327.66
	353	0.708	-3.59157E-001	-4.81796E-006	0.00000E+000	-3.60000E-001	1.46264E-003	7	...........	-327.66
	354	0.71	-3.69011E-001	-4.81806E-006	0.00000E+000	-3.70000E-001	1.48160E-003	7	...........	-327.66
	355	0.712	-3.79144E-001	-4.81691E-006	0.00000E+000	-3.80000E-001	1.40057E-003	7	...........	-327.66
	356	0.714	-3.89111E-001	-4.81447E-006	0.00000E+000	-3.90000E-001	1.46781E-003	7	...........	-327.66
	357	0.716	-3.99117E-001	-4.81259E-006	0.00000E+000	-4.00000E-001	1.39540E-003	7	...........	-327.66
	358	0.718	-4.09136E-001	-4.81011E-006	0.00000E+000	-4.10000E-001	1.38850E-003	7	...........	-327.66
	359	0.72	-4.19107E-001	-4.80704E-006	0.00000E+000	-4.20000E-001	1.41264E-003	7	...........	-327.66
	360	0.722	-4.29134E-001	-4.80308E-006	0.00000E+000	-4.30000E-001	1.48333E-003	7	...........	-327.66
	361	0.724	-4.39142E-001	-4.79849E-006	0.00000E+000	-4.40000E-001	1.49367E-003	7	...........	-327.66
	362	0.726	-4.49076E-001	-4.79408E-006	0.00000E+000	-4.50000E-001	1.43333E-003	7	...........	-327.66
	363	0.728	-4.59126E-001	-4.79057E-006	0.00000E+000	-4.60000E-001	1.45402E-003	7	...........	-327.66
	364	0.73	-4.69061E-001	-4.78592E-006	0.00000E+000	-4.70000E-001	1.42471E-003	7	...........	-327.66
	365	0.732	-4.79111E-001	-4.78116E-006	0.00000E+000	-4.80000E-001	1.39195E-003	7	...........	-327.66
	366	0.734	-4.89128E-001	-4.77540E-006	0.00000E+000	-4.90000E-001	1.42988E-003	7	...........	-327.66
	367	0.736	-4.99069E-001	-4.77033E-006	0.00000E+000	-5.00000E-001	1.42988E-003	7	...........	-327.66
	368	0.738	-5.09113E-001	-4.76490E-006	0.00000E+000	-5.10000E-001	1.44022E-003	7	...........	-327.66
	369	0.74	-5.19152E-001	-4.75940E-006	0.00000E+000	-5.20000E-001	1.41091E-003	7	...........	-327.66
	370	0.742	-5.29113E-001	-4.75269E-006	0.00000E+000	-5.30000E-001	1.41953E-003	7	...........	-327.66
	371	0.744	-5.39150E-001	-4.74462E-006	0.00000E+000	-5.40000E-001	1.46953E-003	7	...........	-327.66
	372	0.746	-5.49056E-001	-4.73558E-006	0.00000E+000	-5.50000E-001	1.45402E-003	7	...........	-327.66
	373	0.748	-5.59168E-001	-4.72362E-006	0.00000E+000	-5.60000E-001	1.40057E-003	7	...........	-327.66
	374	0.75	-5.69079E-001	-4.70865E-006	0.00000E+000	-5.70000E-001	1.38678E-003	7	...........	-327.66
	375	0.752	-5.79061E-001	-4.69068E-006	0.00000E+000	-5.80000E-001	1.43160E-003	7	...........	-327.66
	376	0.754	-5.89095E-001	-4.66716E-006	0.00000E+000	-5.90000E-001	1.47643E-003	7	...........	-327.66
	377	0.756	-5.99137E-001	-4.64073E-006	0.00000E+000	-6.00000E-001	1.38505E-003	7	...........	-327.66
	378	0.758	-6.09117E-001	-4.60586E-006	0.00000E+000	-6.10000E-001	1.49712E-003	7	...........	-327.66
	379	0.76	-6.19115E-001	-4.56308E-006	0.00000E+000	-6.20000E-001	1.48333E-003	7	...........	-327.66
	380	0.762	-6.29043E-001	-4.51140E-006	0.00000E+000	-6.30000E-001	1.42643E-003	7	...........	-327.66
	381	0.764	-6.39130E-001	-4.44753E-006	0.00000E+000	-6.40000E-001	1.49195E-003	7	...........	-327.66
	382	0.766	-6.49042E-001	-4.37186E-006	0.00000E+000	-6.50000E-001	1.42988E-003	7	...........	-327.66
	383	0.768	-6.59087E-001	-4.28518E-006	0.00000E+000	-6.60000E-001	1.43678E-003	7	...........	-327.66
	384	0.77	-6.69043E-001	-4.18258E-006	0.00000E+000	-6.70000E-001	1.48850E-003	7	...........	-327.66
	385	0.772	-6.79055E-001	-4.06837E-006	0.00000E+000	-6.80000E-001	1.40747E-003	7	...........	-327.66
	386	0.774	-6.89117E-001	-3.94049E-006	0.00000E+000	-6.90000E-001	1.44367E-003	7	...........	-327.66
	387	0.776	-6.99099E-001	-3.79754E-006	0.00000E+000	-7.00000E-001	1.45057E-003	7	...........	-327.66
	388	0.778	-7.09078E-001	-3.64073E-006	0.00000E+000	-7.10000E-001	1.40747E-003	7	...........	-327.66
	389	0.78	-7.19132E-001	-3.47305E-006	0.00000E+000	-7.20000E-001	1.44367E-003	7	...........	-327.66
	390	0.782	-7.29042E-001	-3.29613E-006	0.00000E+000	-7.30000E-001	1.46781E-003	7	...........	-327.66
	391	0.784	-7.39130E-001	-3.11373E-006	0.00000E+000	-7.40000E-001	1.46436E-003	7	...........	-327.66
	392	0.786	-7.49095E-001	-2.92656E-006	0.00000E+000	-7.50000E-001	1.38505E-003	7	...........	-327.66
	393	0.788	-7.59079E-001	-2.73842E-006	0.00000E+000	-7.60000E-001	1.41436E-003	7	...........	-327.66
	394	0.79	-7.69110E-001	-2.55437E-006	0.00000E+000	-7.70000E-001	1.48333E-003	7	...........	-327.66
	395	0.792	-7.79068E-001	-2.37521E-006	0.00000E+000	-7.80000E-001	1.42126E-003	7	...........	-327.66
	396	0.794	-7.89132E-001	-2.20133E-006	0.00000E+000	-7.90000E-001	1.46091E-003	7	...........	-327.66
	397	0.796	-7.99128E-001	-2.03861E-006	0.00000E+000	-8.00000E-001	1.45402E-003	7	...........	-327.66
	398	0.798	-8.09091E-001	-1.89015E-006	0.00000E+000	-8.10000E-001	1.41436E-003	7	...........	-327.66
	399	0.8	-8.19168E-001	-1.75482E-006	0.00000E+000	-8.20000E-001	1.42298E-003	7	...........	-327.66
	400	0.802	-8.29027E-001	-1.63273E-006	0.00000E+000	-8.30000E-001	1.46781E-003	7	...........	-327.66
	401	0.804	-8.39133E-001	-1.52284E-006	0.00000E+000	-8.40000E-001	1.46781E-003	7	...........	-327.66
	402	0.806	-8.49158E-001	-1.42515E-006	0.00000E+000	-8.50000E-001	1.42471E-003	7	...........	-327.66
	403	0.808	-8.59051E-001	-1.33510E-006	0.00000E+000	-8.60000E-001	1.38160E-003	7	...........	-327.66
	404	0.81	-8.69136E-001	-1.25716E-006	0.00000E+000	-8.70000E-001	1.40229E-003	7	...........	-327.66
	405	0.812	-8.79133E-001	-1.18836E-006	0.00000E+000	-8.80000E-001	1.40747E-003	7	...........	-327.66
	406	0.814	-8.89106E-001	-1.12570E-006	0.00000E+000	-8.90000E-001	1.47298E-003	7	...........	-327.66
	407	0.816	-8.99120E-001	-1.07031E-006	0.00000E+000	-9.00000E-001	1.44884E-003	7	...........	-327.66
	408	0.818	-8.90692E-001	-9.45620E-007	0.00000E+000	-8.90000E-001	1.40402E-003	7	...........	-327.66
	409	0.82	-8.80668E-001	-8.57366E-007	0.00000E+000	-8.80000E-001	1.40402E-003	7	...........	-327.66
	410	0.822	-8.70711E-001	-7.89064E-007	0.00000E+000	-8.70000E-001	1.44712E-003	7	...........	-327.66
	411	0.824	-8.60661E-001	-7.31435E-007	0.00000E+000	-8.60000E-001	1.38678E-003	7	...........	-327.66
	412	0.826	-8.50709E-001	-6.79756E-007	0.00000E+000	-8.50000E-001	1.42988E-003	7	...........	-327.66
	413	0.828	-8.40711E-001	-6.33319E-007	0.00000E+000	-8.40000E-001	1.42815E-003	7	...........	-327.66
	414	0.83	-8.30657E-001	-5.88571E-007	0.00000E+000	-8.30000E-001	1.48160E-003	7	...........	-327.66
	415	0.832	-8.20695E-001	-5.46566E-007	0.00000E+000	-8.20000E-001	1.43678E-003	7	...........	-327.66
	416	0.834	-8.10641E-001	-5.04887E-007	0.00000E+000	-8.10000E-001	1.45229E-003	7	...........	-327.66
	417	0.836	-8.00689E-001	-4.63796E-007	0.00000E+000	-8.00000E-001	1.47988E-003	7	...........	-327.66
	418	0.838	-7.90710E-001	-4.22756E-007	0.00000E+000	-7.90000E-001	1.39022E-003	7	...........	-327.66
	419	0.84	-7.80620E-001	-3.78111E-007	0.00000E+000	-7.80000E-001	1.51091E-003	7	...........	-327.66
	420	0.842	-7.70622E-001	-3.33502E-007	0.00000E+000	-7.70000E-001	1.42643E-003	7	...........	-327.66
	421	0.844	-7.60640E-001	-2.85340E-007	0.00000E+000	-7.60000E-001	1.42126E-003	7	...........	-327.66
	422	0.846	-7.50671E-001	-2.31074E-007	0.00000E+000	-7.50000E-001	1.39712E-003	7	...........	-327.66
	423	0.848	-7.40738E-001	-1.72583E-007	0.00000E+000	-7.40000E-001	1.45747E-003	7	...........	-327.66
	424	0.85	-7.30671E-001	-1.08161E-007	0.00000E+000	-7.30000E-001	1.44712E-003	7	...........	-327.66
	425	0.852	-7.20726E-001	-3.80651E-008	0.00000E+000	-7.20000E-001	1.39367E-003	7	...........	-327.66
	426	0.854	-7.10674E-001	4.05145E-008	0.00000E+000	-7.10000E-001	1.46781E-003	7	...........	-327.66
	427	0.856	-7.00702E-001	1.27044E-007	0.00000E+000	-7.00000E-001	1.45919E-003	7	...........	-327.66
	428	0.858	-6.90715E-001	2.24160E-007	0.00000E+000	-6.90000E-001	1.40229E-003	7	...........	-327.66
	429	0.86	-6.80674E-001	3.32278E-007	0.00000E+000	-6.80000E-001	1.48678E-003	7	...........	-327.66
	430	0.862	-6.70647E-001	4.52226E-007	0.00000E+000	-6.70000E-001	1.40747E-003	7	...........	-327.66
	431	0.864	-6.60721E-001	5.84916E-007	0.00000E+000	-6.60000E-001	1.43850E-003	7	...........	-327.66
	432	0.866	-6.50685E-001	7.34230E-007	0.00000E+000	-6.50000E-001	1.41781E-003	7	...........	-327.66
	433	0.868	-6.40708E-001	8.99218E-007	0.00000E+000	-6.40000E-001	1.46609E-003	7	...........	-327.66
	434	0.87	-6.30717E-001	1.07912E-006	0.00000E+000	-6.30000E-001	1.40402E-003	7	...........	-327.66
	435	0.872	-6.20709E-001	1.27842E-006	0.00000E+000	-6.20000E-001	1.43505E-003	7	...........	-327.66
	436	0.874	-6.10776E-001	1.49656E-006	0.00000E+000	-6.10000E-001	1.45057E-003	7	...........	-327.66
	437	0.876	-6.00808E-001	1.73392E-006	0.00000E+000	-6.00000E-001	1.44022E-003	7	...........	-327.66
	438	0.878	-5.90745E-001	1.99088E-006	0.00000E+000	-5.90000E-001	1.45057E-003	7	...........	-327.66
	439	0.88	-5.80749E-001	2.26520E-006	0.00000E+000	-5.80000E-001	1.50057E-003	7	...........	-327.66
	440	0.882	-5.70742E-001	2.56038E-006	0.00000E+000	-5.70000E-001	1.49022E-003	7	...........	-327.66
	441	0.884	-5.60769E-001	2.86968E-006	0.00000E+000	-5.60000E-001	1.45402E-003	7	...........	-327.66
	442	0.886	-5.50682E-001	3.19070E-006	0.00000E+000	-5.50000E-001	1.45402E-003	7	...........	-327.66
	443	0.888	-5.40767E-001	3.51954E-006	0.00000E+000	-5.40000E-001	1.42988E-003	7	...........	-327.66
	444	0.89	-5.30780E-001	3.85079E-006	0.00000E+000	-5.30000E-001	1.38678E-003	7	...........	-327.66
	445	0.892	-5.20766E-001	4.17368E-006	0.00000E+000	-5.20000E-001	1.41609E-003	7	...........	-327.66
	446	0.894	-5.10731E-001	4.47424E-006	0.00000E+000	-5.10000E-001	1.40057E-003	7	...........	-327.66
	447	0.896	-5.00707E-001	4.73631E-006	0.00000E+000	-5.00000E-001	1.42815E-003	7	...........	-327.66
	448	0.898	-4.90758E-001	4.95429E-006	0.00000E+000	-4.90000E-001	1.42815E-003	7	...........	-327.66
	449	0.9	-4.80755E-001	5.11586E-006	0.00000E+000	-4.80000E-001	1.38678E-003	7	...........	-327.66
	450	0.902	-4.70680E-001	5.22255E-006	0.00000E+000	-4.70000E-001	1.41091E-003	7	...........	-327.66
	451	0.904	-4.60757E-001	5.27188E-006	0.00000E+000	-4.60000E-001	1.41436E-003	7	...........	-327.66
	452	0.906	-4.50737E-001	5.27573E-006	0.00000E+000	-4.50000E-001	1.43850E-003	7	...........	-327.66
	453	0.908	-4.40763E-001	5.24260E-006	0.00000E+000	-4.40000E-001	1.45747E-003	7	...........	-327.66
	454	0.91	-4.30761E-001	5.18347E-006	0.00000E+000	-4.30000E-001	1.43333E-003	7	...........	-327.66
	455	0.912	-4.20743E-001	5.10864E-006	0.00000E+000	-4.20000E-001	1.50057E-003	7	...........	-327.66
	456	0.914	-4.10768E-001	5.02680E-006	0.00000E+000	-4.10000E-001	1.44540E-003	7	...........	-327.66
	457	0.916	-4.00769E-001	4.94298E-006	0.00000E+000	-4.00000E-001	1.43505E-003	7	...........	-327.66
	458	0.918	-3.90716E-001	4.86283E-006	0.00000E+000	-3.90000E-001	1.49367E-003	7	...........	-327.66
	459	0.92	-3.80797E-001	4.78830E-006	0.00000E+000	-3.80000E-001	1.45919E-003	7	...........	-327.66
	460	0.922	-3.70709E-001	4.72160E-006	0.00000E+000	-3.70000E-001	1.39022E-003	7	...........	-327.66
	461	0.924	-3.60779E-001	4.66228E-006	0.00000E+000	-3.60000E-001	1.37126E-003	7	...........	-327.66
	462	0.926	-3.50764E-001	4.61259E-006	0.00000E+000	-3.50000E-001	1.40229E-003	7	...........	-327.66
	463	0.928	-3.40787E-001	4.56891E-006	0.00000E+000	-3.40000E-001	1.41609E-003	7	...........	-327.66
	464	0.93	-3.30804E-001	4.53368E-006	0.00000E+000	-3.30000E-001	1.48850E-003	7	...........	-327.66
	465	0.932	-3.20774E-001	4.50397E-006	0.00000E+000	-3.20000E-001	1.40057E-003	7	...........	-327.66
	466	0.934	-3.10759E-001	4.48048E-006	0.00000E+000	-3.10000E-001	1.38505E-003	7	...........	-327.66
	467	0.936	-3.00782E-001	4.46057E-006	0.00000E+000	-3.00000E-001	1.39022E-003	7	...........	-327.66
	468	0.938	-2.90765E-001	4.44342E-006	0.00000E+000	-2.90000E-001	1.40919E-003	7	...........	-327.66
	469	0.94	-2.80804E-001	4.42916E-006	0.00000E+000	-2.80000E-001	1.40747E-003	7	...........	-327.66
	470	0.942	-2.70722E-001	4.41571E-006	0.00000E+000	-2.70000E-001	1.38505E-003	7	...........	-327.66
	471	0.944	-2.60774E-001	4.40230E-006	0.00000E+000	-2.60000E-001	1.40919E-003	7	...........	-327.66
	472	0.946	-2.50782E-001	4.39085E-006	0.00000E+000	-2.50000E-001	1.47471E-003	7	...........	-327.66
	473	0.948	-2.40774E-001	4.37898E-006	0.00000E+000	-2.40000E-001	1.45574E-003	7	...........	-327.66
	474	0.95	-2.30758E-001	4.36938E-006	0.00000E+000	-2.30000E-001	1.43678E-003	7	...........	-327.66
	475	0.952	-2.20728E-001	4.36040E-006	0.00000E+000	-2.20000E-001	1.43160E-003	7	...........	-327.66
	476	0.954	-2.10786E-001	4.35098E-006	0.00000E+000	-2.10000E-001	1.44022E-003	7	...........	-327.66
	477	0.956	-2.00821E-001	4.34300E-006	0.00000E+000	-2.00000E-001	1.41781E-003	7	...........	-327.66
	478	0.958	-1.90734E-001	4.33675E-006	0.00000E+000	-1.90000E-001	1.40402E-003	7	...........	-327.66
	479	0.96	-1.80799E-001	4.32962E-006	0.00000E+000	-1.80000E-001	1.46436E-003	7	...........	-327.66
	480	0.962	-1.70790E-001	4.32363E-006	0.00000E+000	-1.70000E-001	1.44022E-003	7	...........	-327.66
	481	0.964	-1.60801E-001	4.31848E-006	0.00000E+000	-1.60000E-001	1.46091E-003	7	...........	-327.66
	482	0.966	-1.50813E-001	4.31360E-006	0.00000E+000	-1.50000E-001	1.38850E-003	7	...........	-327.66
	483	0.968	-1.40786E-001	4.30991E-006	0.00000E+000	-1.40000E-001	1.44022E-003	7	...........	-327.66
	484	0.97	-1.30813E-001	4.30537E-006	0.00000E+000	-1.30000E-001	1.41953E-003	7	...........	-327.66
	485	0.972	-1.20821E-001	4.30182E-006	0.00000E+000	-1.20000E-001	1.36091E-003	7	...........	-327.66
	486	0.974	-1.10780E-001	4.29699E-006	0.00000E+000	-1.10000E-001	1.40057E-003	7	...........	-327.66
	487	0.976	-1.00806E-001	4.29404E-006	0.00000E+000	-1.00000E-001	1.40919E-003	7	...........	-327.66
	488	0.978	-9.07960E-002	4.29151E-006	0.00000E+000	-9.00000E-002	1.44712E-003	7	...........	-327.66
	489	0.98	-8.07968E-002	4.28733E-006	0.00000E+000	-8.00000E-002	1.43160E-003	7	...........	-327.66
	490	0.982	-7.07641E-002	4.28483E-006	0.00000E+000	-7.00000E-002	1.48333E-003	7	...........	-327.66
	491	0.984	-6.07942E-002	4.28078E-006	0.00000E+000	-6.00000E-002	1.46091E-003	7	...........	-327.66
	492	0.986	-5.08192E-002	4.27676E-006	0.00000E+000	-5.00000E-002	1.41091E-003	7	...........	-327.66
	493	0.988	-4.07830E-002	4.27330E-006	0.00000E+000	-4.00000E-002	1.43505E-003	7	...........	-327.66
	494	0.99	-3.07986E-002	4.27000E-006	0.00000E+000	-3.00000E-002	1.43333E-003	7	...........	-327.66
	495	0.992	-2.07951E-002	4.26371E-006	0.00000E+000	-2.00000E-002	1.39712E-003	7	...........	-327.66
	496	0.994	-1.07908E-002	4.25959E-006	0.00000E+000	-1.00000E-002	1.41091E-003	7	...........	-327.66
	497	0.996	-8.11486E-004	4.25366E-006	0.00000E+000	-1.49012E-008	1.39712E-003	7	...........	-327.66
	498	0.998	9.25575E-003	4.24883E-006	0.00000E+000	9.99999E-003	1.40229E-003	7	...........	-327.66
	499	1	1.92204E-002	4.24276E-006	0.00000E+000	2.00000E-002	1.38850E-003	7	...........	-327.66
	500	1.002	2.92083E-002	4.23560E-006	0.00000E+000	3.00000E-002	1.43505E-003	7	...........	-327.66
	501	1.004	3.91609E-002	4.22907E-006	0.00000E+000	4.00000E-002	1.46953E-003	7	...........	-327.66
	502	1.006	4.92514E-002	4.22153E-006	0.00000E+000	5.00000E-002	1.43505E-003	7	...........	-327.66
	503	1.008	5.92282E-002	4.21324E-006	0.00000E+000	6.00000E-002	1.38678E-003	7	...........	-327.66
	504	1.01	6.92057E-002	4.20432E-006	0.00000E+000	7.00000E-002	1.36953E-003	7	...........	-327.66
	505	1.012	7.92023E-002	4.19562E-006	0.00000E+000	8.00000E-002	1.39884E-003	7	...........	-327.66
	506	1.014	8.92980E-002	4.18649E-006	0.00000E+000	9.00000E-002	1.47471E-003	7	...........	-327.66
	507	1.016	9.92109E-002	4.17656E-006	0.00000E+000	1.00000E-001	1.44884E-003	7	...........	-327.66
	508	1.018	1.09228E-001	4.16801E-006	0.00000E+000	1.10000E-001	1.46436E-003	7	...........	-327.66
	509	1.02	1.19245E-001	4.15640E-006	0.00000E+000	1.20000E-001	1.42471E-003	7	...........	-327.66
	510	1.022	1.29220E-001	4.14518E-006	0.00000E+000	1.30000E-001	1.45747E-003	7	...........	-327.66
	511	1.024	1.39265E-001	4.13506E-006	0.00000E+000	1.40000E-001	1.37988E-003	7	...........	-327.66
	512	1.026	1.49242E-001	4.12533E-006	0.00000E+000	1.50000E-001	1.48505E-003	7	...........	-327.66
	513	1.028	1.59218E-001	4.11231E-006	0.00000E+000	1.60000E-001	1.46609E-003	7	...........	-327.66
	514	1.03	1.69245E-001	4.10248E-006	0.00000E+000	1.70000E-001	1.47471E-003	7	...........	-327.66
	515	1.032	1.79217E-001	4.09219E-006	0.00000E+000	1.80000E-001	1.48160E-003	7	...........	-327.66
	516	1.034	1.89252E-001	4.08012E-006	0.00000E+000	1.90000E-001	1.46609E-003	7	...........	-327.66
	517	1.036	1.99226E-001	4.06949E-006	0.00000E+000	2.00000E-001	1.48678E-003	7	...........	-327.66
	518	1.038	2.09185E-001	4.05798E-006	0.00000E+000	2.10000E-001	1.43678E-003	7	...........	-327.66
	519	1.04	2.19198E-001	4.04751E-006	0.00000E+000	2.20000E-001	1.44367E-003	7	...........	-327.66
	520	1.042	2.29198E-001	4.03733E-006	0.00000E+000	2.30000E-001	1.42988E-003	7	...........	-327.66
	521	1.044	2.39187E-001	4.02647E-006	0.00000E+000	2.40000E-001	1.45919E-003	7	...........	-327.66
	522	1.046	2.49234E-001	4.01719E-006	0.00000E+000	2.50000E-001	1.48160E-003	7	...........	-327.66
	523	1.048	2.59199E-001	4.00568E-006	0.00000E+000	2.60000E-001	1.48333E-003	7	...........	-327.66
	524	1.05	2.69207E-001	3.99755E-006	0.00000E+000	2.70000E-001	1.47471E-003	7	...........	-327.66
	525	1.052	2.79192E-001	3.98867E-006	0.00000E+000	2.80000E-001	1.47126E-003	7	...........	-327.66
	526	1.054	2.89199E-001	3.97976E-006	0.00000E+000	2.90000E-001	1.43160E-003	7	...........	-327.66
	527	1.056	2.99194E-001	3.97103E-006	0.00000E+000	3.00000E-001	1.37298E-003	7	...........	-327.66
	528	1.058	3.09189E-001	3.96488E-006	0.00000E+000	3.10000E-001	1.41609E-003	7	...........	-327.66
	529	1.06	3.19193E-001	3.95741E-006	0.00000E+000	3.20000E-001	1.39540E-003	7	...........	-327.66
	530	1.062	3.29218E-001	3.95246E-006	0.00000E+000	3.30000E-001	1.38678E-003	7	...........	-327.66
	531	1.064	3.39204E-001	3.94737E-006	0.00000E+000	3.40000E-001	1.39195E-003	7	...........	-327.66
	532	1.066	3.49227E-001	3.94196E-006	0.00000E+000	3.50000E-001	1.47643E-003	7	...........	-327.66
	533	1.068	3.59188E-001	3.94037E-006	0.00000E+000	3.60000E-001	1.41091E-003	7	...........	-327.66
	534	1.07	3.69230E-001	3.93779E-006	0.00000E+000	3.70000E-001	1.46436E-003	7	...........	-327.66
	535	1.072	3.79195E-001	3.93529E-006	0.00000E+000	3.80000E-001	1.46953E-003	7	...........	-327.66
	536	1.074	3.89180E-001	3.93518E-006	0.00000E+000	3.90000E-001	1.47298E-003	7	...........	-327.66
	537	1.076	3.99201E-001	3.93553E-006	0.00000E+000	4.00000E-001	1.39195E-003	7	...........	-327.66
	538	1.078	4.09191E-001	3.93670E-006	0.00000E+000	4.10000E-001	1.36091E-003	7	...........	-327.66
	539	1.08	4.19195E-001	3.94056E-006	0.00000E+000	4.20000E-001	1.39540E-003	7	...........	-327.66
	540	1.082	4.29175E-001	3.94393E-006	0.00000E+000	4.30000E-001	1.40919E-003	7	...........	-327.66
	541	1.084	4.39158E-001	3.94856E-006	0.00000E+000	4.40000E-001	1.50574E-003	7	...........	-327.66
	542	1.086	4.49234E-001	3.95588E-006	0.00000E+000	4.50000E-001	1.45229E-003	7	...........	-327.66
	543	1.088	4.59198E-001	3.96227E-006	0.00000E+000	4.60000E-001	1.45574E-003	7	...........	-327.66
	544	1.09	4.69164E-001	3.97200E-006	0.00000E+000	4.70000E-001	1.41781E-003	7	...........	-327.66
	545	1.092	4.79171E-001	3.98093E-006	0.00000E+000	4.80000E-001	1.44195E-003	7	...........	-327.66
	546	1.094	4.89176E-001	3.99174E-006	0.00000E+000	4.90000E-001	1.45402E-003	7	...........	-327.66
	547	1.096	4.99221E-001	4.00504E-006	0.00000E+000	5.00000E-001	1.45229E-003	7	...........	-327.66
	548	1.098	5.09195E-001	4.01864E-006	0.00000E+000	5.10000E-001	1.45402E-003	7	...........	-327.66
	549	1.1	5.19157E-001	4.03504E-006	0.00000E+000	5.20000E-001	1.40229E-003	7	...........	-327.66
	550	1.102	5.29192E-001	4.05020E-006	0.00000E+000	5.30000E-001	1.44195E-003	7	...........	-327.66
	551	1.104	5.39201E-001	4.06793E-006	0.00000E+000	5.40000E-001	1.47298E-003	7	...........	-327.66
	552	1.106	5.49180E-001	4.08795E-006	0.00000E+000	5.50000E-001	1.45747E-003	7	...........	-327.66
	553	1.108	5.59195E-001	4.10679E-006	0.00000E+000	5.60000E-001	1.45919E-003	7	...........	-327.66
	554	1.11	5.69168E-001	4.12743E-006	0.00000E+000	5.70000E-001	1.51091E-003	7	...........	-327.66
	555	1.112	5.79188E-001	4.14733E-006	0.00000E+000	5.80000E-001	1.47643E-003	7	...........	-327.66
	556	1.114	5.89170E-001	4.17009E-006	0.00000E+000	5.90000E-001	1.49195E-003	7	...........	-327.66
	557	1.116	5.99180E-001	4.19320E-006	0.00000E+000	6.00000E-001	1.50402E-003	7	...........	-327.66
CURVE3	TABLE
	Pt	T	Vf	Im	Vu	Sig	Ach	IERange	Over	Temp
	#	s	V vs. Ref.	A	V	V	V	#	bits	deg C
	558	1.118	5.90738E-001	2.84269E-006	0.00000E+000	5.90000E-001	1.45747E-003	7	...........	-327.66
	559	1.12	5.80769E-001	2.11800E-006	0.00000E+000	5.80000E-001	1.36091E-003	7	...........	-327.66
	560	1.122	5.70758E-001	1.59061E-006	0.00000E+000	5.70000E-001	1.37815E-003	7	...........	-327.66
	561	1.124	5.60763E-001	1.15999E-006	0.00000E+000	5.60000E-001	1.47471E-003	7	...........	-327.66
	562	1.126	5.50807E-001	7.91945E-007	0.00000E+000	5.50000E-001	1.38850E-003	7	...........	-327.66
	563	1.128	5.40770E-001	4.68418E-007	0.00000E+000	5.40000E-001	1.40574E-003	7	...........	-327.66
	564	1.13	5.30778E-001	1.80775E-007	0.00000E+000	5.30000E-001	1.46953E-003	7	...........	-327.66
	565	1.132	5.20760E-001	-7.93466E-008	0.00000E+000	5.20000E-001	1.42988E-003	7	...........	-327.66
	566	1.134	5.10756E-001	-3.16655E-007	0.00000E+000	5.10000E-001	1.47126E-003	7	...........	-327.66
	567	1.136	5.00846E-001	-5.33305E-007	0.00000E+000	5.00000E-001	1.40402E-003	7	...........	-327.66
	568	1.138	4.90771E-001	-7.32642E-007	0.00000E+000	4.90000E-001	1.38850E-003	7	...........	-327.66
	569	1.14	4.80764E-001	-9.18358E-007	0.00000E+000	4.80000E-001	1.40747E-003	7	...........	-327.66
	570	1.142	4.70789E-001	-1.08862E-006	0.00000E+000	4.70000E-001	1.38850E-003	7	...........	-327.66
	571	1.144	4.60781E-001	-1.24787E-006	0.00000E+000	4.60000E-001	1.51436E-003	7	...........	-327.66
	572	1.146	4.50799E-001	-1.39620E-006	0.00000E+000	4.50000E-001	1.43678E-003	7	...........	-327.66
	573	1.148	4.40764E-001	-1.53634E-006	0.00000E+000	4.40000E-001	1.47988E-003	7	...........	-327.66
	574	1.15	4.30795E-001	-1.66553E-006	0.00000E+000	4.30000E-001	1.46436E-003	7	...........	-327.66
	575	1.152	4.20826E-001	-1.78837E-006	0.00000E+000	4.20000E-001	1.40057E-003	7	...........	-327.66
	576	1.154	4.10788E-001	-1.90463E-006	0.00000E+000	4.10000E-001	1.46781E-003	7	...........	-327.66
	577	1.156	4.00796E-001	-2.01433E-006	0.00000E+000	4.00000E-001	1.42471E-003	7	...........	-327.66
	578	1.158	3.90804E-001	-2.11811E-006	0.00000E+000	3.90000E-001	1.42298E-003	7	...........	-327.66
	579	1.16	3.80784E-001	-2.21560E-006	0.00000E+000	3.80000E-001	1.45057E-003	7	...........	-327.66
	580	1.162	3.70819E-001	-2.30896E-006	0.00000E+000	3.70000E-001	1.41436E-003	7	...........	-327.66
	581	1.164	3.60779E-001	-2.39847E-006	0.00000E+000	3.60000E-001	1.44195E-003	7	...........	-327.66
	582	1.166	3.50813E-001	-2.48250E-006	0.00000E+000	3.50000E-001	1.45402E-003	7	...........	-327.66
	583	1.168	3.40807E-001	-2.56303E-006	0.00000E+000	3.40000E-001	1.48160E-003	7	...........	-327.66
	584	1.17	3.30827E-001	-2.63975E-006	0.00000E+000	3.30000E-001	1.46264E-003	7	...........	-327.66
	585	1.172	3.20809E-001	-2.71434E-006	0.00000E+000	3.20000E-001	1.42643E-003	7	...........	-327.66
	586	1.174	3.10782E-001	-2.78589E-006	0.00000E+000	3.10000E-001	1.41091E-003	7	...........	-327.66
	587	1.176	3.00802E-001	-2.85455E-006	0.00000E+000	3.00000E-001	1.46953E-003	7	...........	-327.66
	588	1.178	2.90787E-001	-2.91968E-006	0.00000E+000	2.90000E-001	1.39540E-003	7	...........	-327.66
	589	1.18	2.80779E-001	-2.98341E-006	0.00000E+000	2.80000E-001	1.49367E-003	7	...........	-327.66
	590	1.182	2.70832E-001	-3.04446E-006	0.00000E+000	2.70000E-001	1.45057E-003	7	...........	-327.66
	591	1.184	2.60786E-001	-3.10490E-006	0.00000E+000	2.60000E-001	1.49022E-003	7	...........	-327.66
	592	1.186	2.50837E-001	-3.16118E-006	0.00000E+000	2.50000E-001	1.45057E-003	7	...........	-327.66
	593	1.188	2.40799E-001	-3.21795E-006	0.00000E+000	2.40000E-001	1.44884E-003	7	...........	-327.66
	594	1.19	2.30791E-001	-3.27192E-006	0.00000E+000	2.30000E-001	1.42815E-003	7	...........	-327.66
	595	1.192	2.20813E-001	-3.32538E-006	0.00000E+000	2.20000E-001	1.41436E-003	7	...........	-327.66
	596	1.194	2.10784E-001	-3.37761E-006	0.00000E+000	2.10000E-001	1.41609E-003	7	...........	-327.66
	597	1.196	2.00816E-001	-3.42668E-006	0.00000E+000	2.00000E-001	1.45919E-003	7	...........	-327.66
	598	1.198	1.90859E-001	-3.47650E-006	0.00000E+000	1.90000E-001	1.46609E-003	7	...........	-327.66
	599	1.2	1.80838E-001	-3.52407E-006	0.00000E+000	1.80000E-001	1.41953E-003	7	...........	-327.66
	600	1.202	1.70875E-001	-3.57034E-006	0.00000E+000	1.70000E-001	1.39540E-003	7	...........	-327.66
	601	1.204	1.60813E-001	-3.61735E-006	0.00000E+000	1.60000E-001	1.40057E-003	7	...........	-327.66
	602	1.206	1.50832E-001	-3.66142E-006	0.00000E+000	1.50000E-001	1.44884E-003	7	...........	-327.66
	603	1.208	1.40883E-001	-3.70484E-006	0.00000E+000	1.40000E-001	1.44540E-003	7	...........	-327.66
	604	1.21	1.30860E-001	-3.74786E-006	0.00000E+000	1.30000E-001	1.41436E-003	7	...........	-327.66
	605	1.212	1.20850E-001	-3.79102E-006	0.00000E+000	1.20000E-001	1.40747E-003	7	...........	-327.66
	606	1.214	1.10832E-001	-3.82998E-006	0.00000E+000	1.10000E-001	1.38505E-003	7	...........	-327.66
	607	1.216	1.00808E-001	-3.87086E-006	0.00000E+000	1.00000E-001	1.41264E-003	7	...........	-327.66
	608	1.218	9.08885E-002	-3.90880E-006	0.00000E+000	9.00000E-002	1.40919E-003	7	...........	-327.66
	609	1.22	8.08014E-002	-3.94717E-006	0.00000E+000	8.00000E-002	1.40057E-003	7	...........	-327.66
	610	1.222	7.08195E-002	-3.98528E-006	0.00000E+000	7.00000E-002	1.46091E-003	7	...........	-327.66
	611	1.224	6.08463E-002	-4.02102E-006	0.00000E+000	6.00000E-002	1.42126E-003	7	...........	-327.66
	612	1.226	5.08506E-002	-4.05639E-006	0.00000E+000	5.00000E-002	1.49712E-003	7	...........	-327.66
	613	1.228	4.08247E-002	-4.09127E-006	0.00000E+000	4.00000E-002	1.38850E-003	7	...........	-327.66
	614	1.23	3.08221E-002	-4.12504E-006	0.00000E+000	3.00000E-002	1.41953E-003	7	...........	-327.66
	615	1.232	2.08058E-002	-4.15804E-006	0.00000E+000	2.00000E-002	1.37988E-003	7	...........	-327.66
	616	1.234	1.08739E-002	-4.18848E-006	0.00000E+000	9.99999E-003	1.38505E-003	7	...........	-327.66
	617	1.236	7.97997E-004	-4.22120E-006	0.00000E+000	-1.49012E-008	1.44884E-003	7	...........	-327.66
	618	1.238	-9.14080E-003	-4.25145E-006	0.00000E+000	-1.00000E-002	1.47126E-003	7	...........	-327.66
	619	1.24	-1.91391E-002	-4.28126E-006	0.00000E+000	-2.00000E-002	1.48333E-003	7	...........	-327.66
	620	1.242	-2.91761E-002	-4.30985E-006	0.00000E+000	-3.00000E-002	1.46436E-003	7	...........	-327.66
	621	1.244	-3.91365E-002	-4.33786E-006	0.00000E+000	-4.00000E-002	1.45402E-003	7	...........	-327.66
	622	1.246	-4.91770E-002	-4.36479E-006	0.00000E+000	-5.00000E-002	1.44022E-003	7	...........	-327.66
	623	1.248	-5.91830E-002	-4.39216E-006	0.00000E+000	-6.00000E-002	1.34884E-003	7	...........	-327.66
	624	1.25	-6.91468E-002	-4.41658E-006	0.00000E+000	-7.00000E-002	1.45919E-003	7	...........	-327.66
	625	1.252	-7.91787E-002	-4.44204E-006	0.00000E+000	-8.00000E-002	1.41264E-003	7	...........	-327.66
	626	1.254	-8.91460E-002	-4.46603E-006	0.00000E+000	-9.00000E-002	1.38850E-003	7	...........	-327.66
	627	1.256	-9.91710E-002	-4.48938E-006	0.00000E+000	-1.00000E-001	1.40919E-003	7	...........	-327.66
	628	1.258	-1.09145E-001	-4.51252E-006	0.00000E+000	-1.10000E-001	1.44884E-003	7	...........	-327.66
	629	1.26	-1.19185E-001	-4.53382E-006	0.00000E+000	-1.20000E-001	1.46953E-003	7	...........	-327.66
	630	1.262	-1.29178E-001	-4.55487E-006	0.00000E+000	-1.30000E-001	1.49367E-003	7	...........	-327.66
	631	1.264	-1.39132E-001	-4.57411E-006	0.00000E+000	-1.40000E-001	1.43850E-003	7	...........	-327.66
	632	1.266	-1.49196E-001	-4.59286E-006	0.00000E+000	-1.50000E-001	1.40229E-003	7	...........	-327.66
	633	1.268	-1.59181E-001	-4.61146E-006	0.00000E+000	-1.60000E-001	1.41264E-003	7	...........	-327.66
	634	1.27	-1.69125E-001	-4.62836E-006	0.00000E+000	-1.70000E-001	1.45919E-003	7	...........	-327.66
	635	1.272	-1.79180E-001	-4.64542E-006	0.00000E+000	-1.80000E-001	1.38850E-003	7	...........	-327.66
	636	1.274	-1.89100E-001	-4.66035E-006	0.00000E+000	-1.90000E-001	1.40747E-003	7	...........	-327.66
	637	1.276	-1.99198E-001	-4.67604E-006	0.00000E+000	-2.00000E-001	1.42815E-003	7	...........	-327.66
	638	1.278	-2.09160E-001	-4.69016E-006	0.00000E+000	-2.10000E-001	1.35574E-003	7	...........	-327.66
	639	1.28	-2.19089E-001	-4.70232E-006	0.00000E+000	-2.20000E-001	1.42471E-003	7	...........	-327.66
	640	1.282	-2.29132E-001	-4.71344E-006	0.00000E+000	-2.30000E-001	1.44367E-003	7	...........	-327.66
	641	1.284	-2.39150E-001	-4.72510E-006	0.00000E+000	-2.40000E-001	1.41781E-003	7	...........	-327.66
	642	1.286	-2.49135E-001	-4.73502E-006	0.00000E+000	-2.50000E-001	1.41953E-003	7	...........	-327.66
	643	1.288	-2.59123E-001	-4.74298E-006	0.00000E+000	-2.60000E-001	1.39022E-003	7	...........	-327.66
	644	1.29	-2.69089E-001	-4.75024E-006	0.00000E+000	-2.70000E-001	1.44540E-003	7	...........	-327.66
	645	1.292	-2.79177E-001	-4.75712E-006	0.00000E+000	-2.80000E-001	1.46609E-003	7	...........	-327.66
	646	1.294	-2.89113E-001	-4.76304E-006	0.00000E+000	-2.90000E-001	1.41436E-003	7	...........	-327.66
	647	1.296	-2.99120E-001	-4.76661E-006	0.00000E+000	-3.00000E-001	1.45747E-003	7	...........	-327.66
	648	1.298	-3.09160E-001	-4.76949E-006	0.00000E+000	-3.10000E-001	1.43678E-003	7	...........	-327.66
	649	1.3	-3.19157E-001	-4.77157E-006	0.00000E+000	-3.20000E-001	1.47988E-003	7	...........	-327.66
	650	1.302	-3.29159E-001	-4.77221E-006	0.00000E+000	-3.30000E-001	1.39195E-003	7	...........	-327.66
	651	1.304	-3.39162E-001	-4.77392E-006	0.00000E+000	-3.40000E-001	1.35229E-003	7	...........	-327.66
	652	1.306	-3.49136E-001	-4.77193E-006	0.00000E+000	-3.50000E-001	1.47126E-003	7	...........	-327.66
	653	1.308	-3.59180E-001	-4.77054E-006	0.00000E+000	-3.60000E-001	1.45229E-003	7	...........	-327.66
	654	1.31	-3.69055E-001	-4.76947E-006	0.00000E+000	-3.70000E-001	1.43333E-003	7	...........	-327.66
	655	1.312	-3.79175E-001	-4.76733E-006	0.00000E+000	-3.80000E-001	1.48850E-003	7	...........	-327.66
	656	1.314	-3.89120E-001	-4.76198E-006	0.00000E+000	-3.90000E-001	1.38850E-003	7	...........	-327.66
	657	1.316	-3.99119E-001	-4.75857E-006	0.00000E+000	-4.00000E-001	1.42126E-003	7	...........	-327.66
	658	1.318	-4.09143E-001	-4.75312E-006	0.00000E+000	-4.10000E-001	1.38505E-003	7	...........	-327.66
	659	1.32	-4.19118E-001	-4.74841E-006	0.00000E+000	-4.20000E-001	1.44195E-003	7	...........	-327.66
	660	1.322	-4.29128E-001	-4.74362E-006	0.00000E+000	-4.30000E-001	1.41609E-003	7	...........	-327.66
	661	1.324	-4.39141E-001	-4.73586E-006	0.00000E+000	-4.40000E-001	1.43678E-003	7	...........	-327.66
	662	1.326	-4.49084E-001	-4.73100E-006	0.00000E+000	-4.50000E-001	1.39022E-003	7	...........	-327.66
	663	1.328	-4.59134E-001	-4.72391E-006	0.00000E+000	-4.60000E-001	1.46091E-003	7	...........	-327.66
	664	1.33	-4.69047E-001	-4.71763E-006	0.00000E+000	-4.70000E-001	1.41953E-003	7	...........	-327.66
	665	1.332	-4.79109E-001	-4.71148E-006	0.00000E+000	-4.80000E-001	1.38505E-003	7	...........	-327.66
	666	1.334	-4.89127E-001	-4.70358E-006	0.00000E+000	-4.90000E-001	1.36953E-003	7	...........	-327.66
	667	1.336	-4.99060E-001	-4.69620E-006	0.00000E+000	-5.00000E-001	1.41609E-003	7	...........	-327.66
	668	1.338	-5.09099E-001	-4.68915E-006	0.00000E+000	-5.10000E-001	1.40057E-003	7	...........	-327.66
	669	1.34	-5.19155E-001	-4.68232E-006	0.00000E+000	-5.20000E-001	1.41609E-003	7	...........	-327.66
	670	1.342	-5.29102E-001	-4.67258E-006	0.00000E+000	-5.30000E-001	1.47126E-003	7	...........	-327.66
	671	1.344	-5.39136E-001	-4.66323E-006	0.00000E+000	-5.40000E-001	1.42815E-003	7	...........	-327.66
	672	1.346	-5.49062E-001	-4.65078E-006	0.00000E+000	-5.50000E-001	1.43160E-003	7	...........	-327.66
	673	1.348	-5.59152E-001	-4.63667E-006	0.00000E+000	-5.60000E-001	1.45402E-003	7	...........	-327.66
	674	1.35	-5.69104E-001	-4.61843E-006	0.00000E+000	-5.70000E-001	1.44367E-003	7	...........	-327.66
	675	1.352	-5.79071E-001	-4.59813E-006	0.00000E+000	-5.80000E-001	1.45402E-003	7	...........	-327.66
	676	1.354	-5.89121E-001	-4.57318E-006	0.00000E+000	-5.90000E-001	1.42643E-003	7	...........	-327.66
	677	1.356	-5.99116E-001	-4.54202E-006	0.00000E+000	-6.00000E-001	1.46781E-003	7	...........	-327.66
	678	1.358	-6.09130E-001	-4.50476E-006	0.00000E+000	-6.10000E-001	1.45402E-003	7	...........	-327.66
	679	1.36	-6.19115E-001	-4.45924E-006	0.00000E+000	-6.20000E-001	1.43850E-003	7	...........	-327.66
	680	1.362	-6.29037E-001	-4.40207E-006	0.00000E+000	-6.30000E-001	1.46091E-003	7	...........	-327.66
	681	1.364	-6.39120E-001	-4.33746E-006	0.00000E+000	-6.40000E-001	1.44022E-003	7	...........	-327.66
	682	1.366	-6.49082E-001	-4.25886E-006	0.00000E+000	-6.50000E-001	1.39195E-003	7	...........	-327.66
	683	1.368	-6.59088E-001	-4.16899E-006	0.00000E+000	-6.60000E-001	1.40919E-003	7	...........	-327.66
	684	1.37	-6.69106E-001	-4.06592E-006	0.00000E+000	-6.70000E-001	1.43333E-003	7	...........	-327.66
	685	1.372	-6.79046E-001	-3.95027E-006	0.00000E+000	-6.80000E-001	1.40229E-003	7	...........	-327.66
	686	1.374	-6.89118E-001	-3.82155E-006	0.00000E+000	-6.90000E-001	1.40747E-003	7	...........	-327.66
	687	1.376	-6.99115E-001	-3.67968E-006	0.00000E+000	-7.00000E-001	1.49195E-003	7	...........	-327.66
	688	1.378	-7.09059E-001	-3.52714E-006	0.00000E+000	-7.10000E-001	1.35574E-003	7	...........	-327.66
	689	1.38	-7.19155E-001	-3.36204E-006	0.00000E+000	-7.20000E-001	1.40057E-003	7	...........	-327.66
	690	1.382	-7.29069E-001	-3.18832E-006	0.00000E+000	-7.30000E-001	1.40229E-003	7	...........	-327.66
	691	1.384	-7.39161E-001	-3.01199E-006	0.00000E+000	-7.40000E-001	1.44022E-003	7	...........	-327.66
	692	1.386	-7.49077E-001	-2.83027E-006	0.00000E+000	-7.50000E-001	1.44367E-003	7	...........	-327.66
	693	1.388	-7.59099E-001	-2.65142E-006	0.00000E+000	-7.60000E-001	1.42471E-003	7	...........	-327.66
	694	1.39	-7.69101E-001	-2.47619E-006	0.00000E+000	-7.70000E-001	1.42298E-003	7	...........	-327.66
	695	1.392	-7.79070E-001	-2.30210E-006	0.00000E+000	-7.80000E-001	1.42126E-003	7	...........	-327.66
	696	1.394	-7.89111E-001	-2.13704E-006	0.00000E+000	-7.90000E-001	1.43333E-003	7	...........	-327.66
	697	1.396	-7.99148E-001	-1.98430E-006	0.00000E+000	-8.00000E-001	1.45919E-003	7	...........	-327.66
	698	1.398	-8.09069E-001	-1.84160E-006	0.00000E+000	-8.10000E-001	1.42815E-003	7	...........	-327.66
	699	1.4	-8.19141E-001	-1.71235E-006	0.00000E+000	-8.20000E-001	1.42988E-003	7	...........	-327.66
	700	1.402	-8.29041E-001	-1.59483E-006	0.00000E+000	-8.30000E-001	1.43333E-003	7	...........	-327.66
	701	1.404	-8.39124E-001	-1.49059E-006	0.00000E+000	-8.40000E-001	1.41091E-003	7	...........	-327.66
	702	1.406	-8.49154E-001	-1.39849E-006	0.00000E+000	-8.50000E-001	1.38678E-003	7	...........	-327.66
	703	1.408	-8.59073E-001	-1.31484E-006	0.00000E+000	-8.60000E-001	1.47643E-003	7	...........	-327.66
	704	1.41	-8.69129E-001	-1.23938E-006	0.00000E+000	-8.70000E-001	1.45747E-003	7	...........	-327.66
	705	1.412	-8.79161E-001	-1.17250E-006	0.00000E+000	-8.80000E-001	1.44712E-003	7	...........	-327.66
	706	1.414	-8.89083E-001	-1.11140E-006	0.00000E+000	-8.90000E-001	1.44367E-003	7	...........	-327.66
	707	1.416	-8.99135E-001	-1.05791E-006	0.00000E+000	-9.00000E-001	1.41781E-003	7	...........	-327.66
	708	1.418	-8.90670E-001	-9.36239E-007	0.00000E+000	-8.90000E-001	1.42643E-003	7	...........	-327.66
	709	1.42	-8.80679E-001	-8.49383E-007	0.00000E+000	-8.80000E-001	1.46781E-003	7	...........	-327.66
	710	1.422	-8.70711E-001	-7.81046E-007	0.00000E+000	-8.70000E-001	1.44884E-003	7	...........	-327.66
	711	1.424	-8.60629E-001	-7.24072E-007	0.00000E+000	-8.60000E-001	1.41436E-003	7	...........	-327.66
	712	1.426	-8.50658E-001	-6.74410E-007	0.00000E+000	-8.50000E-001	1.40574E-003	7	...........	-327.66
	713	1.428	-8.40693E-001	-6.28852E-007	0.00000E+000	-8.40000E-001	1.48160E-003	7	...........	-327.66
	714	1.43	-8.30575E-001	-5.84433E-007	0.00000E+000	-8.30000E-001	1.47298E-003	7	...........	-327.66
	715	1.432	-8.20697E-001	-5.43858E-007	0.00000E+000	-8.20000E-001	1.45747E-003	7	...........	-327.66
	716	1.434	-8.10661E-001	-5.00714E-007	0.00000E+000	-8.10000E-001	1.49712E-003	7	...........	-327.66
	717	1.436	-8.00687E-001	-4.59933E-007	0.00000E+000	-8.00000E-001	1.48850E-003	7	...........	-327.66
	718	1.438	-7.90683E-001	-4.18203E-007	0.00000E+000	-7.90000E-001	1.49540E-003	7	...........	-327.66
	719	1.44	-7.80614E-001	-3.73163E-007	0.00000E+000	-7.80000E-001	1.46953E-003	7	...........	-327.66
	720	1.442	-7.70617E-001	-3.27605E-007	0.00000E+000	-7.70000E-001	1.47471E-003	7	...........	-327.66
	721	1.444	-7.60670E-001	-2.78701E-007	0.00000E+000	-7.60000E-001	1.42643E-003	7	...........	-327.66
	722	1.446	-7.50647E-001	-2.24090E-007	0.00000E+000	-7.50000E-001	1.47988E-003	7	...........	-327.66
	723	1.448	-7.40749E-001	-1.64669E-007	0.00000E+000	-7.40000E-001	1.40229E-003	7	...........	-327.66
	724	1.45	-7.30680E-001	-9.92976E-008	0.00000E+000	-7.30000E-001	1.40402E-003	7	...........	-327.66
	725	1.452	-7.20717E-001	-2.75982E-008	0.00000E+000	-7.20000E-001	1.42298E-003	7	...........	-327.66
	726	1.454	-7.10667E-001	5.21713E-008	0.00000E+000	-7.10000E-001	1.44884E-003	7	...........	-327.66
	727	1.456	-7.00718E-001	1.40666E-007	0.00000E+000	-7.00000E-001	1.41781E-003	7	...........	-327.66
	728	1.458	-6.90708E-001	2.39593E-007	0.00000E+000	-6.90000E-001	1.44195E-003	7	...........	-327.66
	729	1.46	-6.80680E-001	3.50471E-007	0.00000E+000	-6.80000E-001	1.42815E-003	7	...........	-327.66
	730	1.462	-6.70626E-001	4.73160E-007	0.00000E+000	-6.70000E-001	1.49195E-003	7	...........	-327.66
	731	1.464	-6.60724E-001	6.08661E-007	0.00000E+000	-6.60000E-001	1.40229E-003	7	...........	-327.66
	732	1.466	-6.50733E-001	7.60095E-007	0.00000E+000	-6.50000E-001	1.46264E-003	7	...........	-327.66
	733	1.468	-6.40727E-001	9.27308E-007	0.00000E+000	-6.40000E-001	1.47988E-003	7	...........	-327.66
	734	1.47	-6.30690E-001	1.11066E-006	0.00000E+000	-6.30000E-001	1.41781E-003	7	...........	-327.66
	735	1.472	-6.20717E-001	1.31317E-006	0.00000E+000	-6.20000E-001	1.43160E-003	7	...........	-327.66
	736	1.474	-6.10752E-001	1.53274E-006	0.00000E+000	-6.10000E-001	1.44712E-003	7	...........	-327.66
	737	1.476	-6.00751E-001	1.77316E-006	0.00000E+000	-6.00000E-001	1.43678E-003	7	...........	-327.66
	738	1.478	-5.90747E-001	2.03203E-006	0.00000E+000	-5.90000E-001	1.44195E-003	7	...........	-327.66
	739	1.48	-5.80742E-001	2.31150E-006	0.00000E+000	-5.80000E-001	1.41091E-003	7	...........	-327.66
	740	1.482	-5.70732E-001	2.60842E-006	0.00000E+000	-5.70000E-001	1.47815E-003	7	...........	-327.66
	741	1.484	-5.60762E-001	2.92072E-006	0.00000E+000	-5.60000E-001	1.48678E-003	7	...........	-327.66
	742	1.486	-5.50667E-001	3.24399E-006	0.00000E+000	-5.50000E-001	1.40747E-003	7	...........	-327.66
	743	1.488	-5.40741E-001	3.57379E-006	0.00000E+000	-5.40000E-001	1.42126E-003	7	...........	-327.66
	744	1.49	-5.30762E-001	3.90273E-006	0.00000E+000	-5.30000E-001	1.43850E-003	7	...........	-327.66
	745	1.492	-5.20778E-001	4.22143E-006	0.00000E+000	-5.20000E-001	1.44884E-003	7	...........	-327.66
	746	1.494	-5.10753E-001	4.51606E-006	0.00000E+000	-5.10000E-001	1.43850E-003	7	...........	-327.66
	747	1.496	-5.00706E-001	4.77054E-006	0.00000E+000	-5.00000E-001	1.40919E-003	7	...........	-327.66
	748	1.498	-4.90766E-001	4.97645E-006	0.00000E+000	-4.90000E-001	1.44540E-003	7	...........	-327.66
	749	1.5	-4.80746E-001	5.12528E-006	0.00000E+000	-4.80000E-001	1.44195E-003	7	...........	-327.66
	750	1.502	-4.70704E-001	5.21612E-006	0.00000E+000	-4.70000E-001	1.42643E-003	7	...........	-327.66
	751	1.504	-4.60747E-001	5.25424E-006	0.00000E+000	-4.60000E-001	1.42643E-003	7	...........	-327.66
	752	1.506	-4.50720E-001	5.24819E-006	0.00000E+000	-4.50000E-001	1.37298E-003	7	...........	-327.66
	753	1.508	-4.40755E-001	5.20755E-006	0.00000E+000	-4.40000E-001	1.35402E-003	7	...........	-327.66
	754	1.51	-4.30764E-001	5.14064E-006	0.00000E+000	-4.30000E-001	1.45229E-003	7	...........	-327.66
	755	1.512	-4.20761E-001	5.06078E-006	0.00000E+000	-4.20000E-001	1.38505E-003	7	...........	-327.66
	756	1.514	-4.10771E-001	4.97495E-006	0.00000E+000	-4.10000E-001	1.38333E-003	7	...........	-327.66
	757	1.516	-4.00769E-001	4.88978E-006	0.00000E+000	-4.00000E-001	1.41264E-003	7	...........	-327.66
	758	1.518	-3.90745E-001	4.80949E-006	0.00000E+000	-3.90000E-001	1.39367E-003	7	...........	-327.66
	759	1.52	-3.80789E-001	4.73526E-006	0.00000E+000	-3.80000E-001	1.41781E-003	7	...........	-327.66
	760	1.522	-3.70726E-001	4.66961E-006	0.00000E+000	-3.70000E-001	1.42126E-003	7	...........	-327.66
	761	1.524	-3.60798E-001	4.61193E-006	0.00000E+000	-3.60000E-001	1.46781E-003	7	...........	-327.66
	762	1.526	-3.50776E-001	4.56368E-006	0.00000E+000	-3.50000E-001	1.43850E-003	7	...........	-327.66
	763	1.528	-3.40780E-001	4.52092E-006	0.00000E+000	-3.40000E-001	1.41781E-003	7	...........	-327.66
	764	1.53	-3.30800E-001	4.48862E-006	0.00000E+000	-3.30000E-001	1.44367E-003	7	...........	-327.66
	765	1.532	-3.20767E-001	4.46225E-006	0.00000E+000	-3.20000E-001	1.43850E-003	7	...........	-327.66
	766	1.534	-3.10754E-001	4.44067E-006	0.00000E+000	-3.10000E-001	1.45747E-003	7	...........	-327.66
	767	1.536	-3.00778E-001	4.42135E-006	0.00000E+000	-3.00000E-001	1.41091E-003	7	...........	-327.66
	768	1.538	-2.90748E-001	4.40485E-006	0.00000E+000	-2.90000E-001	1.42643E-003	7	...........	-327.66
	769	1.54	-2.80778E-001	4.38975E-006	0.00000E+000	-2.80000E-001	1.40402E-003	7	...........	-327.66
	770	1.542	-2.70711E-001	4.37633E-006	0.00000E+000	-2.70000E-001	1.42643E-003	7	...........	-327.66
	771	1.544	-2.60767E-001	4.36259E-006	0.00000E+000	-2.60000E-001	1.47298E-003	7	...........	-327.66
	772	1.546	-2.50788E-001	4.35131E-006	0.00000E+000	-2.50000E-001	1.46436E-003	7	...........	-327.66
	773	1.548	-2.40768E-001	4.34157E-006	0.00000E+000	-2.40000E-001	1.49195E-003	7	...........	-327.66
	774	1.55	-2.30775E-001	4.33250E-006	0.00000E+000	-2.30000E-001	1.47471E-003	7	...........	-327.66
	775	1.552	-2.20728E-001	4.32401E-006	0.00000E+000	-2.20000E-001	1.38333E-003	7	...........	-327.66
	776	1.554	-2.10790E-001	4.31708E-006	0.00000E+000	-2.10000E-001	1.38678E-003	7	...........	-327.66
	777	1.556	-2.00805E-001	4.30956E-006	0.00000E+000	-2.00000E-001	1.45229E-003	7	...........	-327.66
	778	1.558	-1.90723E-001	4.30532E-006	0.00000E+000	-1.90000E-001	1.46436E-003	7	...........	-327.66
	779	1.56	-1.80805E-001	4.29868E-006	0.00000E+000	-1.80000E-001	1.51091E-003	7	...........	-327.66
	780	1.562	-1.70800E-001	4.29385E-006	0.00000E+000	-1.70000E-001	1.46436E-003	7	...........	-327.66
	781	1.564	-1.60793E-001	4.28935E-006	0.00000E+000	-1.60000E-001	1.38678E-003	7	...........	-327.66
	782	1.566	-1.50807E-001	4.28440E-006	0.00000E+000	-1.50000E-001	1.39022E-003	7	...........	-327.66
	783	1.568	-1.40797E-001	4.28118E-006	0.00000E+000	-1.40000E-001	1.39540E-003	7	...........	-327.66
	784	1.57	-1.30796E-001	4.27904E-006	0.00000E+000	-1.30000E-001	1.45229E-003	7	...........	-327.66
	785	1.572	-1.20809E-001	4.27423E-006	0.00000E+000	-1.20000E-001	1.39367E-003	7	...........	-327.66
	786	1.574	-1.10762E-001	4.27166E-006	0.00000E+000	-1.10000E-001	1.46091E-003	7	...........	-327.66
	787	1.576	-1.00805E-001	4.26880E-006	0.00000E+000	-1.00000E-001	1.46781E-003	7	...........	-327.66
	788	1.578	-9.07934E-002	4.26540E-006	0.00000E+000	-9.00000E-002	1.47471E-003	7	...........	-327.66
	789	1.58	-8.08072E-002	4.26325E-006	0.00000E+000	-8.00000E-002	1.40574E-003	7	...........	-327.66
	790	1.582	-7.07718E-002	4.26033E-006	0.00000E+000	-7.00000E-002	1.39022E-003	7	...........	-327.66
	791	1.584	-6.07718E-002	4.25626E-006	0.00000E+000	-6.00000E-002	1.46091E-003	7	...........	-327.66
	792	1.586	-5.08287E-002	4.25493E-006	0.00000E+000	-5.00000E-002	1.44367E-003	7	...........	-327.66
	793	1.588	-4.07667E-002	4.25086E-006	0.00000E+000	-4.00000E-002	1.44712E-003	7	...........	-327.66
	794	1.59	-3.07856E-002	4.24714E-006	0.00000E+000	-3.00000E-002	1.41091E-003	7	...........	-327.66
	795	1.592	-2.07796E-002	4.24278E-006	0.00000E+000	-2.00000E-002	1.41091E-003	7	...........	-327.66
	796	1.594	-1.07813E-002	4.23840E-006	0.00000E+000	-1.00000E-002	1.35747E-003	7	...........	-327.66
	797	1.596	-8.00279E-004	4.23348E-006	0.00000E+000	-1.49012E-008	1.37126E-003	7	...........	-327.66
	798	1.598	9.23851E-003	4.22821E-006	0.00000E+000	9.99999E-003	1.38333E-003	7	...........	-327.66
	799	1.6	1.92377E-002	4.22336E-006	0.00000E+000	2.00000E-002	1.44022E-003	7	...........	-327.66
	800	1.602	2.92092E-002	4.21684E-006	0.00000E+000	3.00000E-002	1.46436E-003	7	...........	-327.66
	801	1.604	3.91437E-002	4.21005E-006	0.00000E+000	4.00000E-002	1.50747E-003	7	...........	-327.66
	802	1.606	4.92420E-002	4.20343E-006	0.00000E+000	5.00000E-002	1.45057E-003	7	...........	-327.66
	803	1.608	5.92213E-002	4.19572E-006	0.00000E+000	6.00000E-002	1.40229E-003	7	...........	-327.66
	804	1.61	6.92161E-002	4.18658E-006	0.00000E+000	7.00000E-002	1.40919E-003	7	...........	-327.66
	805	1.612	7.92247E-002	4.17916E-006	0.00000E+000	8.00000E-002	1.42298E-003	7	...........	-327.66
	806	1.614	8.92799E-002	4.16987E-006	0.00000E+000	9.00000E-002	1.43850E-003	7	...........	-327.66
	807	1.616	9.92144E-002	4.16068E-006	0.00000E+000	1.00000E-001	1.49195E-003	7	...........	-327.66
	808	1.618	1.09250E-001	4.15220E-006	0.00000E+000	1.10000E-001	1.38678E-003	7	...........	-327.66
	809	1.62	1.19233E-001	4.14073E-006	0.00000E+000	1.20000E-001	1.45747E-003	7	...........	-327.66
	810	1.622	1.29244E-001	4.13157E-006	0.00000E+000	1.30000E-001	1.39195E-003	7	...........	-327.66
	811	1.624	1.39279E-001	4.12131E-006	0.00000E+000	1.40000E-001	1.40057E-003	7	...........	-327.66
	812	1.626	1.49218E-001	4.11086E-006	0.00000E+000	1.50000E-001	1.39367E-003	7	...........	-327.66
	813	1.628	1.59232E-001	4.10046E-006	0.00000E+000	1.60000E-001	1.46264E-003	7	...........	-327.66
	814	1.63	1.69267E-001	4.09077E-006	0.00000E+000	1.70000E-001	1.46091E-003	7	...........	-327.66
	815	1.632	1.79226E-001	4.07917E-006	0.00000E+000	1.80000E-001	1.45919E-003	7	...........	-327.66
	816	1.634	1.89249E-001	4.06956E-006	0.00000E+000	1.90000E-001	1.46953E-003	7	...........	-327.66
	817	1.636	1.99243E-001	4.05937E-006	0.00000E+000	2.00000E-001	1.41781E-003	7	...........	-327.66
	818	1.638	2.09214E-001	4.04851E-006	0.00000E+000	2.10000E-001	1.41953E-003	7	...........	-327.66
	819	1.64	2.19209E-001	4.03740E-006	0.00000E+000	2.20000E-001	1.46436E-003	7	...........	-327.66
	820	1.642	2.29184E-001	4.02813E-006	0.00000E+000	2.30000E-001	1.39540E-003	7	...........	-327.66
	821	1.644	2.39201E-001	4.01766E-006	0.00000E+000	2.40000E-001	1.36264E-003	7	...........	-327.66
	822	1.646	2.49248E-001	4.00856E-006	0.00000E+000	2.50000E-001	1.44367E-003	7	...........	-327.66
	823	1.648	2.59196E-001	3.99845E-006	0.00000E+000	2.60000E-001	1.46264E-003	7	...........	-327.66
	824	1.65	2.69277E-001	3.99052E-006	0.00000E+000	2.70000E-001	1.43333E-003	7	...........	-327.66
	825	1.652	2.79192E-001	3.98114E-006	0.00000E+000	2.80000E-001	1.43505E-003	7	...........	-327.66
	826	1.654	2.89189E-001	3.97350E-006	0.00000E+000	2.90000E-001	1.43333E-003	7	...........	-327.66
	827	1.656	2.99195E-001	3.96538E-006	0.00000E+000	3.00000E-001	1.44195E-003	7	...........	-327.66
	828	1.658	3.09197E-001	3.95900E-006	0.00000E+000	3.10000E-001	1.36436E-003	7	...........	-327.66
	829	1.66	3.19203E-001	3.95281E-006	0.00000E+000	3.20000E-001	1.44022E-003	7	...........	-327.66
	830	1.662	3.29205E-001	3.94687E-006	0.00000E+000	3.30000E-001	1.44022E-003	7	...........	-327.66
	831	1.664	3.39213E-001	3.94237E-006	0.00000E+000	3.40000E-001	1.42643E-003	7	...........	-327.66
	832	1.666	3.49230E-001	3.93910E-006	0.00000E+000	3.50000E-001	1.47643E-003	7	...........	-327.66
	833	1.668	3.59199E-001	3.93636E-006	0.00000E+000	3.60000E-001	1.39712E-003	7	...........	-327.66
	834	1.67	3.69210E-001	3.93372E-006	0.00000E+000	3.70000E-001	1.45574E-003	7	...........	-327.66
	835	1.672	3.79204E-001	3.93223E-006	0.00000E+000	3.80000E-001	1.37815E-003	7	...........	-327.66
	836	1.674	3.89169E-001	3.93237E-006	0.00000E+000	3.90000E-001	1.44712E-003	7	...........	-327.66
	837	1.676	3.99209E-001	3.93399E-006	0.00000E+000	4.00000E-001	1.43505E-003	7	...........	-327.66
	838	1.678	4.09200E-001	3.93577E-006	0.00000E+000	4.10000E-001	1.47126E-003	7	...........	-327.66
	839	1.68	4.19197E-001	3.93929E-006	0.00000E+000	4.20000E-001	1.41436E-003	7	...........	-327.66
	840	1.682	4.29180E-001	3.94329E-006	0.00000E+000	4.30000E-001	1.44540E-003	7	...........	-327.66
	841	1.684	4.39149E-001	3.94834E-006	0.00000E+000	4.40000E-001	1.41609E-003	7	...........	-327.66
	842	1.686	4.49238E-001	3.95598E-006	0.00000E+000	4.50000E-001	1.43678E-003	7	...........	-327.66
	843	1.688	4.59188E-001	3.96251E-006	0.00000E+000	4.60000E-001	1.46436E-003	7	...........	-327.66
	844	1.69	4.69158E-001	3.97296E-006	0.00000E+000	4.70000E-001	1.48160E-003	7	...........	-327.66
	845	1.692	4.79169E-001	3.98252E-006	0.00000E+000	4.80000E-001	1.40919E-003	7	...........	-327.66
	846	1.694	4.89158E-001	3.99379E-006	0.00000E+000	4.90000E-001	1.35229E-003	7	...........	-327.66
	847	1.696	4.99215E-001	4.00788E-006	0.00000E+000	5.00000E-001	1.39022E-003	7	...........	-327.66
	848	1.698	5.09182E-001	4.02226E-006	0.00000E+000	5.10000E-001	1.40402E-003	7	...........	-327.66
	849	1.7	5.19187E-001	4.03858E-006	0.00000E+000	5.20000E-001	1.38850E-003	7	...........	-327.66
	850	1.702	5.29193E-001	4.05527E-006	0.00000E+000	5.30000E-001	1.42815E-003	7	...........	-327.66
	851	1.704	5.39180E-001	4.07363E-006	0.00000E+000	5.40000E-001	1.43850E-003	7	...........	-327.66
	852	1.706	5.49193E-001	4.09388E-006	0.00000E+000	5.50000E-001	1.37643E-003	7	...........	-327.66
	853	1.708	5.59195E-001	4.11490E-006	0.00000E+000	5.60000E-001	1.39195E-003	7	...........	-327.66
	854	1.71	5.69177E-001	4.13728E-006	0.00000E+000	5.70000E-001	1.40229E-003	7	...........	-327.66
	855	1.712	5.79208E-001	4.16080E-006	0.00000E+000	5.80000E-001	1.43160E-003	7	...........	-327.66
	856	1.714	5.89150E-001	4.18599E-006	0.00000E+000	5.90000E-001	1.43505E-003	7	...........	-327.66
	857	1.716	5.99157E-001	4.21119E-006	0.00000E+000	6.00000E-001	1.38505E-003	7	...........	-327.66
CURVE4	TABLE
	Pt	T	Vf	Im	Vu	Sig	Ach	IERange	Over	Temp
	#	s	V vs. Ref.	A	V	V	V	#	bits	deg C
	858	1.718	5.90772E-001	2.84983E-006	0.00000E+000	5.90000E-001	1.41609E-003	7	...........	-327.66
	859	1.72	5.80765E-001	2.11419E-006	0.00000E+000	5.80000E-001	1.45574E-003	7	...........	-327.66
	860	1.722	5.70751E-001	1.57740E-006	0.00000E+000	5.70000E-001	1.40402E-003	7	...........	-327.66
	861	1.724	5.60772E-001	1.13975E-006	0.00000E+000	5.60000E-001	1.42471E-003	7	...........	-327.66
	862	1.726	5.50789E-001	7.66648E-007	0.00000E+000	5.50000E-001	1.46091E-003	7	...........	-327.66
	863	1.728	5.40774E-001	4.39155E-007	0.00000E+000	5.40000E-001	1.47126E-003	7	...........	-327.66
	864	1.73	5.30798E-001	1.48115E-007	0.00000E+000	5.30000E-001	1.47471E-003	7	...........	-327.66
	865	1.732	5.20781E-001	-1.14869E-007	0.00000E+000	5.20000E-001	1.44367E-003	7	...........	-327.66
	866	1.734	5.10763E-001	-3.53953E-007	0.00000E+000	5.10000E-001	1.36264E-003	7	...........	-327.66
	867	1.736	5.00822E-001	-5.73086E-007	0.00000E+000	5.00000E-001	1.38160E-003	7	...........	-327.66
	868	1.738	4.90765E-001	-7.74045E-007	0.00000E+000	4.90000E-001	1.41091E-003	7	...........	-327.66
	869	1.74	4.80774E-001	-9.58104E-007	0.00000E+000	4.80000E-001	1.44367E-003	7	...........	-327.66
	870	1.742	4.70786E-001	-1.13013E-006	0.00000E+000	4.70000E-001	1.41609E-003	7	...........	-327.66
	871	1.744	4.60799E-001	-1.29027E-006	0.00000E+000	4.60000E-001	1.49712E-003	7	...........	-327.66
	872	1.746	4.50818E-001	-1.43889E-006	0.00000E+000	4.50000E-001	1.47126E-003	7	...........	-327.66
	873	1.748	4.40778E-001	-1.57865E-006	0.00000E+000	4.40000E-001	1.47643E-003	7	...........	-327.66
	874	1.75	4.30809E-001	-1.70760E-006	0.00000E+000	4.30000E-001	1.47126E-003	7	...........	-327.66
	875	1.752	4.20818E-001	-1.83096E-006	0.00000E+000	4.20000E-001	1.46953E-003	7	...........	-327.66
	876	1.754	4.10754E-001	-1.94648E-006	0.00000E+000	4.10000E-001	1.45402E-003	7	...........	-327.66
	877	1.756	4.00779E-001	-2.05534E-006	0.00000E+000	4.00000E-001	1.49884E-003	7	...........	-327.66
	878	1.758	3.90800E-001	-2.15898E-006	0.00000E+000	3.90000E-001	1.48850E-003	7	...........	-327.66
	879	1.76	3.80808E-001	-2.25564E-006	0.00000E+000	3.80000E-001	1.46436E-003	7	...........	-327.66
	880	1.762	3.70822E-001	-2.34769E-006	0.00000E+000	3.70000E-001	1.48505E-003	7	...........	-327.66
	881	1.764	3.60784E-001	-2.43622E-006	0.00000E+000	3.60000E-001	1.43678E-003	7	...........	-327.66
	882	1.766	3.50816E-001	-2.52073E-006	0.00000E+000	3.50000E-001	1.43850E-003	7	...........	-327.66
	883	1.768	3.40812E-001	-2.60012E-006	0.00000E+000	3.40000E-001	1.42815E-003	7	...........	-327.66
	884	1.77	3.30826E-001	-2.67605E-006	0.00000E+000	3.30000E-001	1.44540E-003	7	...........	-327.66
	885	1.772	3.20806E-001	-2.74988E-006	0.00000E+000	3.20000E-001	1.46091E-003	7	...........	-327.66
	886	1.774	3.10794E-001	-2.82050E-006	0.00000E+000	3.10000E-001	1.43505E-003	7	...........	-327.66
	887	1.776	3.00820E-001	-2.88837E-006	0.00000E+000	3.00000E-001	1.39712E-003	7	...........	-327.66
	888	1.778	2.90814E-001	-2.95284E-006	0.00000E+000	2.90000E-001	1.36264E-003	7	...........	-327.66
	889	1.78	2.80782E-001	-3.01607E-006	0.00000E+000	2.80000E-001	1.39367E-003	7	...........	-327.66
	890	1.782	2.70839E-001	-3.07605E-006	0.00000E+000	2.70000E-001	1.44540E-003	7	...........	-327.66
	891	1.784	2.60802E-001	-3.13483E-006	0.00000E+000	2.60000E-001	1.39022E-003	7	...........	-327.66
	892	1.786	2.50806E-001	-3.19074E-006	0.00000E+000	2.50000E-001	1.39022E-003	7	...........	-327.66
	893	1.788	2.40820E-001	-3.24597E-006	0.00000E+000	2.40000E-001	1.40057E-003	7	...........	-327.66
	894	1.79	2.30796E-001	-3.29994E-006	0.00000E+000	2.30000E-001	1.38678E-003	7	...........	-327.66
	895	1.792	2.20816E-001	-3.35209E-006	0.00000E+000	2.20000E-001	1.45919E-003	7	...........	-327.66
	896	1.794	2.10802E-001	-3.40242E-006	0.00000E+000	2.10000E-001	1.38678E-003	7	...........	-327.66
	897	1.796	2.00826E-001	-3.45165E-006	0.00000E+000	2.00000E-001	1.44367E-003	7	...........	-327.66
	898	1.798	1.90869E-001	-3.49893E-006	0.00000E+000	1.90000E-001	1.41091E-003	7	...........	-327.66
	899	1.8	1.80830E-001	-3.54641E-006	0.00000E+000	1.80000E-001	1.40057E-003	7	...........	-327.66
	900	1.802	1.70913E-001	-3.59177E-006	0.00000E+000	1.70000E-001	1.45229E-003	7	...........	-327.66
