EXPLAIN
TAG	CV
TITLE	LABEL	CV50000	Test Identifier
DATE	LABEL	5/9/2025	Date
TIME	LABEL	15:27:29	Time
NOTES	NOTES	1	Notes...
	
PSTAT	PSTAT	REF600P-43058	Potentiostat
VINIT	POTEN	0.00000E+000	T	Initial E (V)
VLIMIT1	POTEN	-9.00000E-001	F	Scan Limit 1 (V)
VLIMIT2	POTEN	6.00000E-001	F	Scan Limit 2 (V)
VFINAL	POTEN	0.00000E+000	T	Final E (V)
SCANRATE	QUANT	4.99999E+004	Scan Rate (mV/s)
STEPSIZE	QUANT	1.00000E+001	Step Size (mV)
CYCLES	IQUANT	3	Cycles (#)
IMODE	SELECTOR	1	I/E Range Mode
IRANGE	QUANT	1.00000E-002	Max Current (mA)
AREA	QUANT	1.00000E+000	Sample Area (cm^2)
EQDELAY	QUANT	5.00000E+000	Equil. Time (s)
IRCOMP	SELECTOR	0	IRComp
PFCOR	QUANT	5.00000E+001	PF Corr. (ohm)
SAMPLINGMODE	SELECTOR	2	Sampling Mode
EOC	QUANT	0.1338838	Open Circuit (V)
ELECTRODETYPE	SELECTOR	0	Electrode Type
STRIPPING	TOGGLE	F	Used for Stripping
SEQUENCER	TOGGLE	TRUE	Run as Sequence
PSTATMODEL	IQUANT	7	Pstat Model
PSTATSECTION	LABEL	REF600P-43058	Pstat Section
PSTATSERIALNO	LABEL	43058	Pstat Serial Number
CTRLMODE	IQUANT	1	Control Mode
ELECTROMETER	IQUANT	0	RE=0 or CS=1
IESTAB	IQUANT	2	I/E Stability
CASPEED	IQUANT	4	Control Amp Speed
CONVENTION	IQUANT	1	Current Convention
ICHRANGE	IQUANT	2	Ich Range
ICHRANGEMODE	TOGGLE	F	Ich Auto Range
ICHOFFSETENABLE	TOGGLE	F	Ich Offset Enable
ICHOFFSET	QUANT	0	Ich Offset (V)
ICHFILTER	IQUANT	1	Ich Filter
VCHRANGE	IQUANT	2	Vch Range
VCHRANGEMODE	TOGGLE	F	Vch Auto Range
VCHOFFSETENABLE	TOGGLE	F	Vch Offset Enable
VCHOFFSET	QUANT	0	Vch Offset (V)
VCHFILTER	IQUANT	1	Vch Filter
ACHRANGE	IQUANT	2	Ach Range
ACHOFFSETENABLE	TOGGLE	F	Ach Offset Enable
ACHOFFSET	QUANT	0	Ach Offset (V)
ACHFILTER	IQUANT	1	Ach Filter
IERANGELOWERLIMIT	IQUANT	1	I/E Range Lower Limit
IERANGEMODE	TOGGLE	F	I/E AutoRange
IERANGE	IQUANT	7	I/E Range
POSFEEDENABLE	TOGGLE	F	Positive Feedback IR Comp
POSFEEDRESISTANCE	QUANT	0	Positive Feedback Resistance (ohm)
ACHSELECT	IQUANT	4	Ach Select
SENSECABLEID	IQUANT	7	Sense Cable ID
PWRCABLEID	IQUANT	7	Power Cable ID
DCCALDATE	LABEL	5/8/2025	DC Calibration Date
ACCALDATE	LABEL	5/8/2025	AC Calibration Date
THERMOSELECT	IQUANT	1	Thermo Select
FRAMEWORKVERSION	LABEL	7.10.4	Framework Version
INSTRUMENTVERSION	LABEL	5.01	Instrument Version
COMMVERSION	LABEL	5.10	Communications Version
CPUPLDVERSION	LABEL	6.00	CPU PLD Version
CTRLPLDVERSION	LABEL	3.21	CTRL PLD Version
PSTATPLDVERSION	LABEL	0.00	PSTAT PLD Version
CURVE1	TABLE
	Pt	T	Vf	Im	Vu	Sig	Ach	IERange	Over	Temp
	#	s	V vs. Ref.	A	V	V	V	#	bits	deg C
	0	0.0002	1.33937E-001	1.06554E-008	0.00000E+000	1.33900E-001	1.19022E-003	7	...........	-327.66
	1	0.0004	1.23937E-001	-1.37478E-006	0.00000E+000	1.23900E-001	1.04022E-003	7	...........	-327.66
	2	0.0006	1.14012E-001	-2.70096E-006	0.00000E+000	1.13900E-001	9.15224E-004	7	...........	-327.66
	3	0.0008	1.03937E-001	-3.82762E-006	0.00000E+000	1.03900E-001	1.04022E-003	7	...........	-327.66
	4	0.001	9.40373E-002	-4.82350E-006	0.00000E+000	9.39000E-002	1.19022E-003	7	...........	-327.66
	5	0.0012	8.40498E-002	-5.71362E-006	0.00000E+000	8.39000E-002	1.11522E-003	7	...........	-327.66
	6	0.0014	7.40873E-002	-6.53899E-006	0.00000E+000	7.39000E-002	1.21522E-003	7	...........	-327.66
	7	0.0016	6.39623E-002	-7.30009E-006	0.00000E+000	6.39000E-002	1.16522E-003	7	...........	-327.66
	8	0.0018	5.40123E-002	-8.01819E-006	0.00000E+000	5.39000E-002	1.14022E-003	7	...........	-327.66
	9	0.002	4.39873E-002	-8.69903E-006	0.00000E+000	4.39000E-002	1.11522E-003	7	...........	-327.66
	10	0.0022	3.39873E-002	-9.34412E-006	0.00000E+000	3.39000E-002	9.40224E-004	7	...........	-327.66
	11	0.0024	2.39873E-002	-9.96045E-006	0.00000E+000	2.39000E-002	1.09022E-003	7	...........	-327.66
	12	0.0026	1.42498E-002	-1.05580E-005	0.00000E+000	1.39000E-002	9.90224E-004	7	...........	-327.66
	13	0.0028	4.04981E-003	-1.11339E-005	0.00000E+000	3.89999E-003	9.90224E-004	7	...........	-327.66
	14	0.003	-5.73769E-003	-1.16867E-005	0.00000E+000	-6.10001E-003	1.14022E-003	7	...........	-327.66
	15	0.0032	-1.60127E-002	-1.22318E-005	0.00000E+000	-1.61000E-002	9.40224E-004	7	...........	-327.66
	16	0.0034	-2.60252E-002	-1.27578E-005	0.00000E+000	-2.61000E-002	1.09022E-003	7	...........	-327.66
	17	0.0036	-3.60377E-002	-1.32774E-005	0.00000E+000	-3.61000E-002	1.06522E-003	7	...........	-327.66
	18	0.0038	-4.60502E-002	-1.37817E-005	0.00000E+000	-4.61000E-002	1.11522E-003	7	...........	-327.66
	19	0.004	-5.60002E-002	-1.42755E-005	0.00000E+000	-5.61000E-002	1.11522E-003	7	...........	-327.66
	20	0.0042	-6.58877E-002	-1.47564E-005	0.00000E+000	-6.61000E-002	9.90224E-004	7	...........	-327.66
	21	0.0044	-7.60252E-002	-1.52384E-005	0.00000E+000	-7.61000E-002	1.19022E-003	7	...........	-327.66
	22	0.0046	-8.57627E-002	-1.57040E-005	0.00000E+000	-8.61000E-002	1.19022E-003	7	...........	-327.66
	23	0.0048	-9.59752E-002	-1.61683E-005	0.00000E+000	-9.61000E-002	1.09022E-003	7	...........	-327.66
	24	0.005	-1.05888E-001	-1.66264E-005	0.00000E+000	-1.06100E-001	1.14022E-003	7	...........	-327.66
	25	0.0052	-1.15925E-001	-1.70757E-005	0.00000E+000	-1.16100E-001	1.11522E-003	7	...........	-327.66
	26	0.0054	-1.25913E-001	-1.75180E-005	0.00000E+000	-1.26100E-001	9.65224E-004	7	...........	-327.66
	27	0.0056	-1.36063E-001	-1.79540E-005	0.00000E+000	-1.36100E-001	1.24022E-003	7	...........	-327.66
	28	0.0058	-1.46000E-001	-1.83879E-005	0.00000E+000	-1.46100E-001	1.09022E-003	7	...........	-327.66
	29	0.006	-1.55925E-001	-1.88157E-005	0.00000E+000	-1.56100E-001	1.04022E-003	7	...........	-327.66
	30	0.0062	-1.65800E-001	-1.92400E-005	0.00000E+000	-1.66100E-001	1.11522E-003	7	...........	-327.66
	31	0.0064	-1.76038E-001	-1.96605E-005	0.00000E+000	-1.76100E-001	1.06522E-003	7	...........	-327.66
	32	0.0066	-1.85988E-001	-2.00758E-005	0.00000E+000	-1.86100E-001	1.09022E-003	7	...........	-327.66
	33	0.0068	-1.95963E-001	-2.04894E-005	0.00000E+000	-1.96100E-001	8.90224E-004	7	...........	-327.66
	34	0.007	-2.05838E-001	-2.08942E-005	0.00000E+000	-2.06100E-001	1.11522E-003	7	...........	-327.66
	35	0.0072	-2.15900E-001	-2.12970E-005	0.00000E+000	-2.16100E-001	1.16522E-003	7	...........	-327.66
	36	0.0074	-2.25938E-001	-2.17021E-005	0.00000E+000	-2.26100E-001	9.90224E-004	7	...........	-327.66
	37	0.0076	-2.35988E-001	-2.20999E-005	0.00000E+000	-2.36100E-001	1.06522E-003	7	...........	-327.66
	38	0.0078	-2.45813E-001	-2.24894E-005	0.00000E+000	-2.46100E-001	1.14022E-003	7	...........	-327.66
	39	0.008	-2.55925E-001	-2.28802E-005	0.00000E+000	-2.56100E-001	1.11522E-003	7	...........	-327.66
	40	0.0082	-2.65813E-001	-2.32663E-005	0.00000E+000	-2.66100E-001	1.01522E-003	7	...........	-327.66
	41	0.0084	-2.75950E-001	-2.36493E-005	0.00000E+000	-2.76100E-001	9.65224E-004	7	...........	-327.66
	42	0.0086	-2.85800E-001	-2.40274E-005	0.00000E+000	-2.86100E-001	1.09022E-003	7	...........	-327.66
	43	0.0088	-2.95913E-001	-2.44049E-005	0.00000E+000	-2.96100E-001	1.14022E-003	7	...........	-327.66
	44	0.009	-3.05825E-001	-2.47830E-005	0.00000E+000	-3.06100E-001	9.90224E-004	7	...........	-327.66
	45	0.0092	-3.16063E-001	-2.51530E-005	0.00000E+000	-3.16100E-001	1.09022E-003	7	...........	-327.66
	46	0.0094	-3.25825E-001	-2.55131E-005	0.00000E+000	-3.26100E-001	1.19022E-003	7	...........	-327.66
	47	0.0096	-3.35913E-001	-2.58774E-005	0.00000E+000	-3.36100E-001	1.14022E-003	7	...........	-327.66
	48	0.0098	-3.45838E-001	-2.62367E-005	0.00000E+000	-3.46100E-001	9.65224E-004	7	...........	-327.66
	49	0.01	-3.55950E-001	-2.65940E-005	0.00000E+000	-3.56100E-001	1.24022E-003	7	...........	-327.66
	50	0.0102	-3.65788E-001	-2.69470E-005	0.00000E+000	-3.66100E-001	1.21522E-003	7	...........	-327.66
	51	0.0104	-3.75925E-001	-2.72943E-005	0.00000E+000	-3.76100E-001	1.11522E-003	7	...........	-327.66
	52	0.0106	-3.86013E-001	-2.76436E-005	0.00000E+000	-3.86100E-001	1.19022E-003	7	...........	-327.66
	53	0.0108	-3.95950E-001	-2.79862E-005	0.00000E+000	-3.96100E-001	1.01522E-003	7	...........	-327.66
	54	0.011	-4.05825E-001	-2.83252E-005	0.00000E+000	-4.06100E-001	1.16522E-003	7	...........	-327.66
	55	0.0112	-4.15925E-001	-2.86603E-005	0.00000E+000	-4.16100E-001	1.09022E-003	7	...........	-327.66
	56	0.0114	-4.25863E-001	-2.89975E-005	0.00000E+000	-4.26100E-001	1.01522E-003	7	...........	-327.66
	57	0.0116	-4.35950E-001	-2.93248E-005	0.00000E+000	-4.36100E-001	1.14022E-003	7	...........	-327.66
	58	0.0118	-4.45650E-001	-2.96496E-005	0.00000E+000	-4.46100E-001	1.04022E-003	7	...........	-327.66
	59	0.012	-4.55788E-001	-2.99727E-005	0.00000E+000	-4.56100E-001	1.16522E-003	7	...........	-327.66
	60	0.0122	-4.65725E-001	-3.02890E-005	0.00000E+000	-4.66100E-001	1.11522E-003	7	...........	-327.66
	61	0.0124	-4.75838E-001	-3.06035E-005	0.00000E+000	-4.76100E-001	1.11522E-003	7	...........	-327.66
	62	0.0126	-4.85688E-001	-3.09128E-005	0.00000E+000	-4.86100E-001	1.21522E-003	7	...........	-327.66
	63	0.0128	-4.95888E-001	-3.12226E-005	0.00000E+000	-4.96100E-001	1.14022E-003	7	...........	-327.66
	64	0.013	-5.05825E-001	-3.15244E-005	0.00000E+000	-5.06100E-001	1.21522E-003	7	...........	-327.66
	65	0.0132	-5.15963E-001	-3.18237E-005	0.00000E+000	-5.16100E-001	1.11522E-003	7	...........	-327.66
	66	0.0134	-5.25713E-001	-3.21167E-005	0.00000E+000	-5.26100E-001	1.24022E-003	7	...........	-327.66
	67	0.0136	-5.35888E-001	-3.24078E-005	0.00000E+000	-5.36100E-001	1.14022E-003	7	...........	-327.66
	68	0.0138	-5.45813E-001	-3.26966E-005	0.00000E+000	-5.46100E-001	1.01522E-003	7	...........	-327.66
	69	0.014	-5.55788E-001	-3.29781E-005	0.00000E+000	-5.56100E-001	1.29022E-003	7	...........	-327.66
	70	0.0142	-5.65738E-001	-3.32541E-005	0.00000E+000	-5.66100E-001	1.16522E-003	7	...........	-327.66
	71	0.0144	-5.75700E-001	-3.35244E-005	0.00000E+000	-5.76100E-001	9.90224E-004	7	...........	-327.66
	72	0.0146	-5.85738E-001	-3.37972E-005	0.00000E+000	-5.86100E-001	1.09022E-003	7	...........	-327.66
	73	0.0148	-5.95738E-001	-3.40597E-005	0.00000E+000	-5.96100E-001	1.14022E-003	7	...........	-327.66
	74	0.015	-6.05650E-001	-3.43113E-005	0.00000E+000	-6.06100E-001	1.14022E-003	7	...........	-327.66
	75	0.0152	-6.15800E-001	-3.45668E-005	0.00000E+000	-6.16100E-001	9.40224E-004	7	...........	-327.66
	76	0.0154	-6.25650E-001	-3.48108E-005	0.00000E+000	-6.26100E-001	1.06522E-003	7	...........	-327.66
	77	0.0156	-6.35738E-001	-3.50549E-005	0.00000E+000	-6.36100E-001	1.29022E-003	7	...........	-327.66
	78	0.0158	-6.45650E-001	-3.52912E-005	0.00000E+000	-6.46100E-001	1.16522E-003	7	...........	-327.66
	79	0.016	-6.55688E-001	-3.55157E-005	0.00000E+000	-6.56100E-001	1.01522E-003	7	...........	-327.66
	80	0.0162	-6.65713E-001	-3.57385E-005	0.00000E+000	-6.66100E-001	1.06522E-003	7	...........	-327.66
	81	0.0164	-6.75675E-001	-3.59487E-005	0.00000E+000	-6.76100E-001	1.11522E-003	7	...........	-327.66
	82	0.0166	-6.85713E-001	-3.61618E-005	0.00000E+000	-6.86100E-001	1.19022E-003	7	...........	-327.66
	83	0.0168	-6.95800E-001	-3.63611E-005	0.00000E+000	-6.96100E-001	1.09022E-003	7	...........	-327.66
	84	0.017	-7.05688E-001	-3.65481E-005	0.00000E+000	-7.06100E-001	1.11522E-003	7	...........	-327.66
	85	0.0172	-7.15738E-001	-3.67341E-005	0.00000E+000	-7.16100E-001	1.29022E-003	7	...........	-327.66
	86	0.0174	-7.25663E-001	-3.69074E-005	0.00000E+000	-7.26100E-001	1.16522E-003	7	...........	-327.66
	87	0.0176	-7.35800E-001	-3.70729E-005	0.00000E+000	-7.36100E-001	1.09022E-003	7	...........	-327.66
	88	0.0178	-7.45675E-001	-3.72294E-005	0.00000E+000	-7.46100E-001	1.14022E-003	7	...........	-327.66
	89	0.018	-7.55763E-001	-3.73707E-005	0.00000E+000	-7.56100E-001	1.16522E-003	7	...........	-327.66
	90	0.0182	-7.65675E-001	-3.75012E-005	0.00000E+000	-7.66100E-001	1.09022E-003	7	...........	-327.66
	91	0.0184	-7.75775E-001	-3.76267E-005	0.00000E+000	-7.76100E-001	1.01522E-003	7	...........	-327.66
	92	0.0186	-7.85688E-001	-3.77292E-005	0.00000E+000	-7.86100E-001	9.90224E-004	7	...........	-327.66
	93	0.0188	-7.95700E-001	-3.78240E-005	0.00000E+000	-7.96100E-001	1.11522E-003	7	...........	-327.66
	94	0.019	-8.05700E-001	-3.79045E-005	0.00000E+000	-8.06100E-001	1.06522E-003	7	...........	-327.66
	95	0.0192	-8.15713E-001	-3.79688E-005	0.00000E+000	-8.16100E-001	1.09022E-003	7	...........	-327.66
	96	0.0194	-8.25738E-001	-3.80165E-005	0.00000E+000	-8.26100E-001	1.01522E-003	7	...........	-327.66
	97	0.0196	-8.35825E-001	-3.80373E-005	0.00000E+000	-8.36100E-001	1.09022E-003	7	...........	-327.66
	98	0.0198	-8.45763E-001	-3.80478E-005	0.00000E+000	-8.46100E-001	1.11522E-003	7	...........	-327.66
	99	0.02	-8.55838E-001	-3.80343E-005	0.00000E+000	-8.56100E-001	1.24022E-003	7	...........	-327.66
	100	0.0202	-8.65788E-001	-3.79970E-005	0.00000E+000	-8.66100E-001	1.14022E-003	7	...........	-327.66
	101	0.0204	-8.75775E-001	-3.79300E-005	0.00000E+000	-8.76100E-001	1.16522E-003	7	...........	-327.66
	102	0.0206	-8.85613E-001	-3.78420E-005	0.00000E+000	-8.86100E-001	1.04022E-003	7	...........	-327.66
	103	0.0208	-8.95763E-001	-3.77202E-005	0.00000E+000	-8.96100E-001	1.09022E-003	7	...........	-327.66
	104	0.021	-8.85788E-001	-3.52319E-005	0.00000E+000	-8.86100E-001	1.19022E-003	7	...........	-327.66
	105	0.0212	-8.75938E-001	-3.27061E-005	0.00000E+000	-8.76100E-001	1.06522E-003	7	...........	-327.66
	106	0.0214	-8.65850E-001	-3.04587E-005	0.00000E+000	-8.66100E-001	1.06522E-003	7	...........	-327.66
	107	0.0216	-8.55913E-001	-2.84162E-005	0.00000E+000	-8.56100E-001	1.04022E-003	7	...........	-327.66
	108	0.0218	-8.45838E-001	-2.65295E-005	0.00000E+000	-8.46100E-001	9.65224E-004	7	...........	-327.66
	109	0.022	-8.35875E-001	-2.47630E-005	0.00000E+000	-8.36100E-001	1.04022E-003	7	...........	-327.66
	110	0.0222	-8.25813E-001	-2.30892E-005	0.00000E+000	-8.26100E-001	1.19022E-003	7	...........	-327.66
	111	0.0224	-8.15950E-001	-2.15098E-005	0.00000E+000	-8.16100E-001	9.65224E-004	7	...........	-327.66
	112	0.0226	-8.05700E-001	-2.00033E-005	0.00000E+000	-8.06100E-001	1.16522E-003	7	...........	-327.66
	113	0.0228	-7.95963E-001	-1.85664E-005	0.00000E+000	-7.96100E-001	1.09022E-003	7	...........	-327.66
	114	0.023	-7.85788E-001	-1.71907E-005	0.00000E+000	-7.86100E-001	1.01522E-003	7	...........	-327.66
	115	0.0232	-7.76050E-001	-1.58648E-005	0.00000E+000	-7.76100E-001	9.65224E-004	7	...........	-327.66
	116	0.0234	-7.65888E-001	-1.46001E-005	0.00000E+000	-7.66100E-001	1.09022E-003	7	...........	-327.66
	117	0.0236	-7.55863E-001	-1.33764E-005	0.00000E+000	-7.56100E-001	1.19022E-003	7	...........	-327.66
	118	0.0238	-7.45888E-001	-1.21928E-005	0.00000E+000	-7.46100E-001	9.40224E-004	7	...........	-327.66
	119	0.024	-7.35975E-001	-1.10591E-005	0.00000E+000	-7.36100E-001	9.90224E-004	7	...........	-327.66
	120	0.0242	-7.25800E-001	-9.96295E-006	0.00000E+000	-7.26100E-001	1.04022E-003	7	...........	-327.66
	121	0.0244	-7.16038E-001	-8.90206E-006	0.00000E+000	-7.16100E-001	1.04022E-003	7	...........	-327.66
	122	0.0246	-7.05913E-001	-7.87192E-006	0.00000E+000	-7.06100E-001	1.09022E-003	7	...........	-327.66
	123	0.0248	-6.96000E-001	-6.87803E-006	0.00000E+000	-6.96100E-001	1.04022E-003	7	...........	-327.66
	124	0.025	-6.85888E-001	-5.91490E-006	0.00000E+000	-6.86100E-001	1.19022E-003	7	...........	-327.66
	125	0.0252	-6.75938E-001	-4.98353E-006	0.00000E+000	-6.76100E-001	9.65224E-004	7	...........	-327.66
	126	0.0254	-6.65850E-001	-4.07565E-006	0.00000E+000	-6.66100E-001	1.06522E-003	7	...........	-327.66
	127	0.0256	-6.55900E-001	-3.19103E-006	0.00000E+000	-6.56100E-001	9.40224E-004	7	...........	-327.66
	128	0.0258	-6.45863E-001	-2.33066E-006	0.00000E+000	-6.46100E-001	1.24022E-003	7	...........	-327.66
	129	0.026	-6.35938E-001	-1.49880E-006	0.00000E+000	-6.36100E-001	1.11522E-003	7	...........	-327.66
	130	0.0262	-6.25725E-001	-6.80939E-007	0.00000E+000	-6.26100E-001	1.14022E-003	7	...........	-327.66
	131	0.0264	-6.16025E-001	1.19920E-007	0.00000E+000	-6.16100E-001	1.16522E-003	7	...........	-327.66
	132	0.0266	-6.05975E-001	9.01527E-007	0.00000E+000	-6.06100E-001	1.16522E-003	7	...........	-327.66
	133	0.0268	-5.96063E-001	1.66588E-006	0.00000E+000	-5.96100E-001	1.14022E-003	7	...........	-327.66
	134	0.027	-5.86063E-001	2.41973E-006	0.00000E+000	-5.86100E-001	1.14022E-003	7	...........	-327.66
	135	0.0272	-5.76063E-001	3.16158E-006	0.00000E+000	-5.76100E-001	1.09022E-003	7	...........	-327.66
	136	0.0274	-5.66013E-001	3.89368E-006	0.00000E+000	-5.66100E-001	1.14022E-003	7	...........	-327.66
	137	0.0276	-5.56050E-001	4.61953E-006	0.00000E+000	-5.56100E-001	1.04022E-003	7	...........	-327.66
	138	0.0278	-5.46038E-001	5.33288E-006	0.00000E+000	-5.46100E-001	9.90224E-004	7	...........	-327.66
	139	0.028	-5.36063E-001	6.04373E-006	0.00000E+000	-5.36100E-001	1.24022E-003	7	...........	-327.66
	140	0.0282	-5.26050E-001	6.74957E-006	0.00000E+000	-5.26100E-001	1.11522E-003	7	...........	-327.66
	141	0.0284	-5.16013E-001	7.44842E-006	0.00000E+000	-5.16100E-001	1.01522E-003	7	...........	-327.66
	142	0.0286	-5.06063E-001	8.14651E-006	0.00000E+000	-5.06100E-001	1.14022E-003	7	...........	-327.66
	143	0.0288	-4.96088E-001	8.84486E-006	0.00000E+000	-4.96100E-001	1.19022E-003	7	...........	-327.66
	144	0.029	-4.86075E-001	9.53645E-006	0.00000E+000	-4.86100E-001	1.21522E-003	7	...........	-327.66
	145	0.0292	-4.75938E-001	1.02308E-005	0.00000E+000	-4.76100E-001	1.21522E-003	7	...........	-327.66
	146	0.0294	-4.65913E-001	1.09194E-005	0.00000E+000	-4.66100E-001	1.09022E-003	7	...........	-327.66
	147	0.0296	-4.56113E-001	1.16132E-005	0.00000E+000	-4.56100E-001	1.14022E-003	7	...........	-327.66
	148	0.0298	-4.45925E-001	1.23033E-005	0.00000E+000	-4.46100E-001	1.19022E-003	7	...........	-327.66
	149	0.03	-4.36050E-001	1.29914E-005	0.00000E+000	-4.36100E-001	1.11522E-003	7	...........	-327.66
	150	0.0302	-4.25988E-001	1.36810E-005	0.00000E+000	-4.26100E-001	1.21522E-003	7	...........	-327.66
	151	0.0304	-4.16050E-001	1.43684E-005	0.00000E+000	-4.16100E-001	1.09022E-003	7	...........	-327.66
	152	0.0306	-4.06138E-001	1.50485E-005	0.00000E+000	-4.06100E-001	1.29022E-003	7	...........	-327.66
	153	0.0308	-3.96063E-001	1.57305E-005	0.00000E+000	-3.96100E-001	1.21522E-003	7	...........	-327.66
	154	0.031	-3.86138E-001	1.64079E-005	0.00000E+000	-3.86100E-001	1.09022E-003	7	...........	-327.66
	155	0.0312	-3.76088E-001	1.70797E-005	0.00000E+000	-3.76100E-001	1.14022E-003	7	...........	-327.66
	156	0.0314	-3.66163E-001	1.77408E-005	0.00000E+000	-3.66100E-001	1.06522E-003	7	...........	-327.66
	157	0.0316	-3.56038E-001	1.83959E-005	0.00000E+000	-3.56100E-001	9.40224E-004	7	...........	-327.66
	158	0.0318	-3.46075E-001	1.90457E-005	0.00000E+000	-3.46100E-001	1.16522E-003	7	...........	-327.66
	159	0.032	-3.36075E-001	1.96863E-005	0.00000E+000	-3.36100E-001	1.29022E-003	7	...........	-327.66
	160	0.0322	-3.26063E-001	2.03132E-005	0.00000E+000	-3.26100E-001	1.19022E-003	7	...........	-327.66
	161	0.0324	-3.16075E-001	2.09288E-005	0.00000E+000	-3.16100E-001	1.19022E-003	7	...........	-327.66
	162	0.0326	-3.06075E-001	2.15281E-005	0.00000E+000	-3.06100E-001	9.65224E-004	7	...........	-327.66
	163	0.0328	-2.96088E-001	2.21207E-005	0.00000E+000	-2.96100E-001	1.04022E-003	7	...........	-327.66
	164	0.033	-2.86100E-001	2.26930E-005	0.00000E+000	-2.86100E-001	1.11522E-003	7	...........	-327.66
	165	0.0332	-2.76013E-001	2.32416E-005	0.00000E+000	-2.76100E-001	1.04022E-003	7	...........	-327.66
	166	0.0334	-2.66038E-001	2.37849E-005	0.00000E+000	-2.66100E-001	1.04022E-003	7	...........	-327.66
	167	0.0336	-2.56113E-001	2.43065E-005	0.00000E+000	-2.56100E-001	1.16522E-003	7	...........	-327.66
	168	0.0338	-2.46088E-001	2.48163E-005	0.00000E+000	-2.46100E-001	1.19022E-003	7	...........	-327.66
	169	0.034	-2.36113E-001	2.53044E-005	0.00000E+000	-2.36100E-001	1.21522E-003	7	...........	-327.66
	170	0.0342	-2.26063E-001	2.57724E-005	0.00000E+000	-2.26100E-001	1.21522E-003	7	...........	-327.66
	171	0.0344	-2.16050E-001	2.62302E-005	0.00000E+000	-2.16100E-001	1.11522E-003	7	...........	-327.66
	172	0.0346	-2.06088E-001	2.66640E-005	0.00000E+000	-2.06100E-001	1.24022E-003	7	...........	-327.66
	173	0.0348	-1.96013E-001	2.70841E-005	0.00000E+000	-1.96100E-001	1.24022E-003	7	...........	-327.66
	174	0.035	-1.86175E-001	2.74851E-005	0.00000E+000	-1.86100E-001	1.19022E-003	7	...........	-327.66
	175	0.0352	-1.76113E-001	2.78675E-005	0.00000E+000	-1.76100E-001	1.19022E-003	7	...........	-327.66
	176	0.0354	-1.66188E-001	2.82373E-005	0.00000E+000	-1.66100E-001	1.19022E-003	7	...........	-327.66
	177	0.0356	-1.56088E-001	2.85908E-005	0.00000E+000	-1.56100E-001	1.09022E-003	7	...........	-327.66
	178	0.0358	-1.46213E-001	2.89256E-005	0.00000E+000	-1.46100E-001	1.16522E-003	7	...........	-327.66
	179	0.036	-1.36138E-001	2.92444E-005	0.00000E+000	-1.36100E-001	1.24022E-003	7	...........	-327.66
	180	0.0362	-1.26138E-001	2.95502E-005	0.00000E+000	-1.26100E-001	1.11522E-003	7	...........	-327.66
	181	0.0364	-1.16113E-001	2.98450E-005	0.00000E+000	-1.16100E-001	1.11522E-003	7	...........	-327.66
	182	0.0366	-1.06100E-001	3.01210E-005	0.00000E+000	-1.06100E-001	1.14022E-003	7	...........	-327.66
	183	0.0368	-9.61752E-002	3.03863E-005	0.00000E+000	-9.61000E-002	1.19022E-003	7	...........	-327.66
	184	0.037	-8.61752E-002	3.06433E-005	0.00000E+000	-8.61000E-002	1.09022E-003	7	...........	-327.66
	185	0.0372	-7.61377E-002	3.08839E-005	0.00000E+000	-7.61000E-002	1.24022E-003	7	...........	-327.66
	186	0.0374	-6.60752E-002	3.11089E-005	0.00000E+000	-6.61000E-002	1.11522E-003	7	...........	-327.66
	187	0.0376	-5.61377E-002	3.13302E-005	0.00000E+000	-5.61000E-002	1.04022E-003	7	...........	-327.66
	188	0.0378	-4.61877E-002	3.15384E-005	0.00000E+000	-4.61000E-002	1.14022E-003	7	...........	-327.66
	189	0.038	-3.60502E-002	3.17357E-005	0.00000E+000	-3.61000E-002	1.09022E-003	7	...........	-327.66
	190	0.0382	-2.62127E-002	3.19275E-005	0.00000E+000	-2.61000E-002	1.06522E-003	7	...........	-327.66
	191	0.0384	-1.61002E-002	3.21063E-005	0.00000E+000	-1.61000E-002	9.65224E-004	7	...........	-327.66
	192	0.0386	-6.16269E-003	3.22751E-005	0.00000E+000	-6.10001E-003	1.04022E-003	7	...........	-327.66
	193	0.0388	3.87481E-003	3.24386E-005	0.00000E+000	3.89999E-003	1.06522E-003	7	...........	-327.66
	194	0.039	1.40373E-002	3.25936E-005	0.00000E+000	1.39000E-002	1.09022E-003	7	...........	-327.66
	195	0.0392	2.39373E-002	3.27396E-005	0.00000E+000	2.39000E-002	1.04022E-003	7	...........	-327.66
	196	0.0394	3.38623E-002	3.28726E-005	0.00000E+000	3.39000E-002	1.14022E-003	7	...........	-327.66
	197	0.0396	4.39373E-002	3.29979E-005	0.00000E+000	4.39000E-002	1.04022E-003	7	...........	-327.66
	198	0.0398	5.38873E-002	3.31144E-005	0.00000E+000	5.39000E-002	1.19022E-003	7	...........	-327.66
	199	0.04	6.38748E-002	3.32214E-005	0.00000E+000	6.39000E-002	1.24022E-003	7	...........	-327.66
	200	0.0402	7.38873E-002	3.33187E-005	0.00000E+000	7.39000E-002	1.06522E-003	7	...........	-327.66
	201	0.0404	8.38748E-002	3.34070E-005	0.00000E+000	8.39000E-002	1.09022E-003	7	...........	-327.66
	202	0.0406	9.39373E-002	3.34812E-005	0.00000E+000	9.39000E-002	1.29022E-003	7	...........	-327.66
	203	0.0408	1.03937E-001	3.35555E-005	0.00000E+000	1.03900E-001	1.16522E-003	7	...........	-327.66
	204	0.041	1.13837E-001	3.36197E-005	0.00000E+000	1.13900E-001	8.90224E-004	7	...........	-327.66
	205	0.0412	1.23887E-001	3.36737E-005	0.00000E+000	1.23900E-001	9.65224E-004	7	...........	-327.66
	206	0.0414	1.33787E-001	3.37167E-005	0.00000E+000	1.33900E-001	1.01522E-003	7	...........	-327.66
	207	0.0416	1.43887E-001	3.37535E-005	0.00000E+000	1.43900E-001	1.11522E-003	7	...........	-327.66
	208	0.0418	1.53912E-001	3.37888E-005	0.00000E+000	1.53900E-001	1.19022E-003	7	...........	-327.66
	209	0.042	1.63862E-001	3.38108E-005	0.00000E+000	1.63900E-001	1.21522E-003	7	...........	-327.66
	210	0.0422	1.73937E-001	3.38270E-005	0.00000E+000	1.73900E-001	1.14022E-003	7	...........	-327.66
	211	0.0424	1.83762E-001	3.38323E-005	0.00000E+000	1.83900E-001	1.24022E-003	7	...........	-327.66
	212	0.0426	1.93862E-001	3.38388E-005	0.00000E+000	1.93900E-001	1.19022E-003	7	...........	-327.66
	213	0.0428	2.03875E-001	3.38285E-005	0.00000E+000	2.03900E-001	1.04022E-003	7	...........	-327.66
	214	0.043	2.13850E-001	3.38208E-005	0.00000E+000	2.13900E-001	1.29022E-003	7	...........	-327.66
	215	0.0432	2.23887E-001	3.38060E-005	0.00000E+000	2.23900E-001	1.29022E-003	7	...........	-327.66
	216	0.0434	2.33912E-001	3.37828E-005	0.00000E+000	2.33900E-001	1.01522E-003	7	...........	-327.66
	217	0.0436	2.43937E-001	3.37503E-005	0.00000E+000	2.43900E-001	1.16522E-003	7	...........	-327.66
	218	0.0438	2.53812E-001	3.37157E-005	0.00000E+000	2.53900E-001	1.14022E-003	7	...........	-327.66
	219	0.044	2.63812E-001	3.36762E-005	0.00000E+000	2.63900E-001	1.16522E-003	7	...........	-327.66
	220	0.0442	2.73837E-001	3.36272E-005	0.00000E+000	2.73900E-001	1.14022E-003	7	...........	-327.66
	221	0.0444	2.83737E-001	3.35765E-005	0.00000E+000	2.83900E-001	1.16522E-003	7	...........	-327.66
	222	0.0446	2.93812E-001	3.35230E-005	0.00000E+000	2.93900E-001	1.16522E-003	7	...........	-327.66
	223	0.0448	3.03787E-001	3.34637E-005	0.00000E+000	3.03900E-001	1.11522E-003	7	...........	-327.66
	224	0.045	3.13812E-001	3.33980E-005	0.00000E+000	3.13900E-001	1.14022E-003	7	...........	-327.66
	225	0.0452	3.23875E-001	3.33304E-005	0.00000E+000	3.23900E-001	1.09022E-003	7	...........	-327.66
	226	0.0454	3.33750E-001	3.32577E-005	0.00000E+000	3.33900E-001	1.14022E-003	7	...........	-327.66
	227	0.0456	3.43900E-001	3.31829E-005	0.00000E+000	3.43900E-001	1.09022E-003	7	...........	-327.66
	228	0.0458	3.53887E-001	3.31057E-005	0.00000E+000	3.53900E-001	1.14022E-003	7	...........	-327.66
	229	0.046	3.63887E-001	3.30234E-005	0.00000E+000	3.63900E-001	1.11522E-003	7	...........	-327.66
	230	0.0462	3.73787E-001	3.29391E-005	0.00000E+000	3.73900E-001	1.09022E-003	7	...........	-327.66
	231	0.0464	3.83775E-001	3.28531E-005	0.00000E+000	3.83900E-001	1.09022E-003	7	...........	-327.66
	232	0.0466	3.93787E-001	3.27659E-005	0.00000E+000	3.93900E-001	9.90224E-004	7	...........	-327.66
	233	0.0468	4.03887E-001	3.26754E-005	0.00000E+000	4.03900E-001	1.11522E-003	7	...........	-327.66
	234	0.047	4.13837E-001	3.25876E-005	0.00000E+000	4.13900E-001	1.14022E-003	7	...........	-327.66
	235	0.0472	4.23825E-001	3.24911E-005	0.00000E+000	4.23900E-001	1.11522E-003	7	...........	-327.66
	236	0.0474	4.33887E-001	3.24018E-005	0.00000E+000	4.33900E-001	1.01522E-003	7	...........	-327.66
	237	0.0476	4.43975E-001	3.23093E-005	0.00000E+000	4.43900E-001	1.19022E-003	7	...........	-327.66
	238	0.0478	4.53900E-001	3.22173E-005	0.00000E+000	4.53900E-001	1.14022E-003	7	...........	-327.66
	239	0.048	4.63862E-001	3.21240E-005	0.00000E+000	4.63900E-001	1.21522E-003	7	...........	-327.66
	240	0.0482	4.73887E-001	3.20330E-005	0.00000E+000	4.73900E-001	1.21522E-003	7	...........	-327.66
	241	0.0484	4.83900E-001	3.19443E-005	0.00000E+000	4.83900E-001	1.16522E-003	7	...........	-327.66
	242	0.0486	4.93875E-001	3.18577E-005	0.00000E+000	4.93900E-001	1.19022E-003	7	...........	-327.66
	243	0.0488	5.03887E-001	3.17770E-005	0.00000E+000	5.03900E-001	1.14022E-003	7	...........	-327.66
	244	0.049	5.13837E-001	3.16955E-005	0.00000E+000	5.13900E-001	1.09022E-003	7	...........	-327.66
	245	0.0492	5.23875E-001	3.16142E-005	0.00000E+000	5.23900E-001	1.11522E-003	7	...........	-327.66
	246	0.0494	5.33875E-001	3.15332E-005	0.00000E+000	5.33900E-001	1.06522E-003	7	...........	-327.66
	247	0.0496	5.43800E-001	3.14662E-005	0.00000E+000	5.43900E-001	1.14022E-003	7	...........	-327.66
	248	0.0498	5.53787E-001	3.14004E-005	0.00000E+000	5.53900E-001	1.01522E-003	7	...........	-327.66
	249	0.05	5.63850E-001	3.13362E-005	0.00000E+000	5.63900E-001	1.11522E-003	7	...........	-327.66
	250	0.0502	5.73875E-001	3.12757E-005	0.00000E+000	5.73900E-001	1.24022E-003	7	...........	-327.66
	251	0.0504	5.83825E-001	3.12224E-005	0.00000E+000	5.83900E-001	9.90224E-004	7	...........	-327.66
	252	0.0506	5.93800E-001	3.11729E-005	0.00000E+000	5.93900E-001	1.29022E-003	7	...........	-327.66
	253	0.0508	6.03937E-001	3.11256E-005	0.00000E+000	6.03900E-001	1.19022E-003	7	...........	-327.66
CURVE2	TABLE
	Pt	T	Vf	Im	Vu	Sig	Ach	IERange	Over	Temp
	#	s	V vs. Ref.	A	V	V	V	#	bits	deg C
	254	0.051	5.89912E-001	2.77427E-005	0.00000E+000	5.90000E-001	1.14022E-003	7	...........	-327.66
	255	0.0512	5.79937E-001	2.50543E-005	0.00000E+000	5.80000E-001	9.15224E-004	7	...........	-327.66
	256	0.0514	5.70050E-001	2.28493E-005	0.00000E+000	5.70000E-001	9.90224E-004	7	...........	-327.66
	257	0.0516	5.59937E-001	2.09083E-005	0.00000E+000	5.60000E-001	1.11522E-003	7	...........	-327.66
	258	0.0518	5.49950E-001	1.91648E-005	0.00000E+000	5.50000E-001	1.01522E-003	7	...........	-327.66
	259	0.052	5.39962E-001	1.75743E-005	0.00000E+000	5.40000E-001	1.11522E-003	7	...........	-327.66
	260	0.0522	5.30100E-001	1.61018E-005	0.00000E+000	5.30000E-001	9.65224E-004	7	...........	-327.66
	261	0.0524	5.19937E-001	1.47427E-005	0.00000E+000	5.20000E-001	9.90224E-004	7	...........	-327.66
	262	0.0526	5.10037E-001	1.34662E-005	0.00000E+000	5.10000E-001	1.14022E-003	7	...........	-327.66
	263	0.0528	4.99975E-001	1.22561E-005	0.00000E+000	5.00000E-001	1.06522E-003	7	...........	-327.66
	264	0.053	4.89912E-001	1.11227E-005	0.00000E+000	4.90000E-001	1.04022E-003	7	...........	-327.66
	265	0.0532	4.79987E-001	1.00390E-005	0.00000E+000	4.80000E-001	1.16522E-003	7	...........	-327.66
	266	0.0534	4.69887E-001	9.00988E-006	0.00000E+000	4.70000E-001	1.16522E-003	7	...........	-327.66
	267	0.0536	4.60037E-001	8.02600E-006	0.00000E+000	4.60000E-001	1.04022E-003	7	...........	-327.66
	268	0.0538	4.50200E-001	7.08337E-006	0.00000E+000	4.50000E-001	1.06522E-003	7	...........	-327.66
	269	0.054	4.39912E-001	6.17850E-006	0.00000E+000	4.40000E-001	1.21522E-003	7	...........	-327.66
	270	0.0542	4.30037E-001	5.30588E-006	0.00000E+000	4.30000E-001	1.04022E-003	7	...........	-327.66
	271	0.0544	4.19987E-001	4.46401E-006	0.00000E+000	4.20000E-001	1.21522E-003	7	...........	-327.66
	272	0.0546	4.10125E-001	3.65315E-006	0.00000E+000	4.10000E-001	1.04022E-003	7	...........	-327.66
	273	0.0548	4.00112E-001	2.86454E-006	0.00000E+000	4.00000E-001	1.04022E-003	7	...........	-327.66
	274	0.055	3.90012E-001	2.10219E-006	0.00000E+000	3.90000E-001	1.09022E-003	7	...........	-327.66
	275	0.0552	3.79987E-001	1.36259E-006	0.00000E+000	3.80000E-001	1.04022E-003	7	...........	-327.66
	276	0.0554	3.70050E-001	6.47992E-007	0.00000E+000	3.70000E-001	1.14022E-003	7	...........	-327.66
	277	0.0556	3.59962E-001	-5.56037E-008	0.00000E+000	3.60000E-001	1.06522E-003	7	...........	-327.66
	278	0.0558	3.50100E-001	-7.32196E-007	0.00000E+000	3.50000E-001	1.09022E-003	7	...........	-327.66
	279	0.056	3.40025E-001	-1.39679E-006	0.00000E+000	3.40000E-001	1.16522E-003	7	...........	-327.66
	280	0.0562	3.30187E-001	-2.04312E-006	0.00000E+000	3.30000E-001	1.09022E-003	7	...........	-327.66
	281	0.0564	3.19937E-001	-2.67246E-006	0.00000E+000	3.20000E-001	9.90224E-004	7	...........	-327.66
	282	0.0566	3.10062E-001	-3.28429E-006	0.00000E+000	3.10000E-001	1.06522E-003	7	...........	-327.66
	283	0.0568	3.00037E-001	-3.88763E-006	0.00000E+000	3.00000E-001	8.90224E-004	7	...........	-327.66
	284	0.057	2.90162E-001	-4.47046E-006	0.00000E+000	2.90000E-001	9.15224E-004	7	...........	-327.66
	285	0.0572	2.80037E-001	-5.05053E-006	0.00000E+000	2.80000E-001	1.06522E-003	7	...........	-327.66
	286	0.0574	2.70200E-001	-5.61511E-006	0.00000E+000	2.70000E-001	1.06522E-003	7	...........	-327.66
	287	0.0576	2.60012E-001	-6.17219E-006	0.00000E+000	2.60000E-001	1.14022E-003	7	...........	-327.66
	288	0.0578	2.50187E-001	-6.71026E-006	0.00000E+000	2.50000E-001	1.29022E-003	7	...........	-327.66
	289	0.058	2.40100E-001	-7.24483E-006	0.00000E+000	2.40000E-001	1.04022E-003	7	...........	-327.66
	290	0.0582	2.30087E-001	-7.77066E-006	0.00000E+000	2.30000E-001	9.90224E-004	7	...........	-327.66
	291	0.0584	2.20187E-001	-8.28673E-006	0.00000E+000	2.20000E-001	1.01522E-003	7	...........	-327.66
	292	0.0586	2.10162E-001	-8.79554E-006	0.00000E+000	2.10000E-001	9.40224E-004	7	...........	-327.66
	293	0.0588	2.00050E-001	-9.28986E-006	0.00000E+000	2.00000E-001	1.09022E-003	7	...........	-327.66
	294	0.059	1.90125E-001	-9.78418E-006	0.00000E+000	1.90000E-001	9.90224E-004	7	...........	-327.66
	295	0.0592	1.80012E-001	-1.02697E-005	0.00000E+000	1.80000E-001	1.11522E-003	7	...........	-327.66
	296	0.0594	1.70262E-001	-1.07431E-005	0.00000E+000	1.70000E-001	1.11522E-003	7	...........	-327.66
	297	0.0596	1.60125E-001	-1.12116E-005	0.00000E+000	1.60000E-001	1.09022E-003	7	...........	-327.66
	298	0.0598	1.50200E-001	-1.16732E-005	0.00000E+000	1.50000E-001	1.06522E-003	7	...........	-327.66
	299	0.06	1.40175E-001	-1.21337E-005	0.00000E+000	1.40000E-001	1.01522E-003	7	...........	-327.66
	300	0.0602	1.30325E-001	-1.25901E-005	0.00000E+000	1.30000E-001	9.65224E-004	7	...........	-327.66
	301	0.0604	1.20187E-001	-1.30369E-005	0.00000E+000	1.20000E-001	1.16522E-003	7	...........	-327.66
	302	0.0606	1.10175E-001	-1.34762E-005	0.00000E+000	1.10000E-001	1.14022E-003	7	...........	-327.66
	303	0.0608	1.00112E-001	-1.39142E-005	0.00000E+000	1.00000E-001	1.21522E-003	7	...........	-327.66
	304	0.061	9.01998E-002	-1.43463E-005	0.00000E+000	9.00000E-002	1.11522E-003	7	...........	-327.66
	305	0.0612	8.00248E-002	-1.47746E-005	0.00000E+000	8.00000E-002	1.11522E-003	7	...........	-327.66
	306	0.0614	7.02123E-002	-1.51992E-005	0.00000E+000	7.00000E-002	9.65224E-004	7	...........	-327.66
	307	0.0616	6.02123E-002	-1.56155E-005	0.00000E+000	6.00000E-002	9.90224E-004	7	...........	-327.66
	308	0.0618	5.01498E-002	-1.60345E-005	0.00000E+000	5.00000E-002	9.90224E-004	7	...........	-327.66
	309	0.062	4.00248E-002	-1.64501E-005	0.00000E+000	4.00000E-002	1.19022E-003	7	...........	-327.66
	310	0.0622	3.01748E-002	-1.68611E-005	0.00000E+000	3.00000E-002	1.14022E-003	7	...........	-327.66
	311	0.0624	2.01373E-002	-1.72637E-005	0.00000E+000	2.00000E-002	1.14022E-003	7	...........	-327.66
	312	0.0626	1.02623E-002	-1.76640E-005	0.00000E+000	9.99999E-003	1.14022E-003	7	...........	-327.66
	313	0.0628	8.73125E-005	-1.80643E-005	0.00000E+000	-1.49012E-008	1.04022E-003	7	...........	-327.66
	314	0.063	-9.70019E-003	-1.84604E-005	0.00000E+000	-1.00000E-002	1.24022E-003	7	...........	-327.66
	315	0.0632	-1.98252E-002	-1.88572E-005	0.00000E+000	-2.00000E-002	1.11522E-003	7	...........	-327.66
	316	0.0634	-2.97752E-002	-1.92437E-005	0.00000E+000	-3.00000E-002	1.16522E-003	7	...........	-327.66
	317	0.0636	-3.97752E-002	-1.96345E-005	0.00000E+000	-4.00000E-002	1.14022E-003	7	...........	-327.66
	318	0.0638	-4.98002E-002	-2.00168E-005	0.00000E+000	-5.00000E-002	1.14022E-003	7	...........	-327.66
	319	0.064	-5.98252E-002	-2.03989E-005	0.00000E+000	-6.00000E-002	1.11522E-003	7	...........	-327.66
	320	0.0642	-6.97502E-002	-2.07822E-005	0.00000E+000	-7.00000E-002	1.09022E-003	7	...........	-327.66
	321	0.0644	-7.97002E-002	-2.11590E-005	0.00000E+000	-8.00000E-002	9.15224E-004	7	...........	-327.66
	322	0.0646	-8.97502E-002	-2.15298E-005	0.00000E+000	-9.00000E-002	1.09022E-003	7	...........	-327.66
	323	0.0648	-9.97877E-002	-2.19011E-005	0.00000E+000	-1.00000E-001	1.04022E-003	7	...........	-327.66
	324	0.065	-1.09838E-001	-2.22709E-005	0.00000E+000	-1.10000E-001	1.16522E-003	7	...........	-327.66
	325	0.0652	-1.19788E-001	-2.26354E-005	0.00000E+000	-1.20000E-001	1.14022E-003	7	...........	-327.66
	326	0.0654	-1.29738E-001	-2.30005E-005	0.00000E+000	-1.30000E-001	1.16522E-003	7	...........	-327.66
	327	0.0656	-1.39763E-001	-2.33570E-005	0.00000E+000	-1.40000E-001	1.21522E-003	7	...........	-327.66
	328	0.0658	-1.49713E-001	-2.37168E-005	0.00000E+000	-1.50000E-001	1.21522E-003	7	...........	-327.66
	329	0.066	-1.59900E-001	-2.40661E-005	0.00000E+000	-1.60000E-001	1.21522E-003	7	...........	-327.66
	330	0.0662	-1.69738E-001	-2.44184E-005	0.00000E+000	-1.70000E-001	1.06522E-003	7	...........	-327.66
	331	0.0664	-1.79900E-001	-2.47735E-005	0.00000E+000	-1.80000E-001	1.21522E-003	7	...........	-327.66
	332	0.0666	-1.89638E-001	-2.51200E-005	0.00000E+000	-1.90000E-001	1.29022E-003	7	...........	-327.66
	333	0.0668	-1.99838E-001	-2.54586E-005	0.00000E+000	-2.00000E-001	1.24022E-003	7	...........	-327.66
	334	0.067	-2.09738E-001	-2.57979E-005	0.00000E+000	-2.10000E-001	1.06522E-003	7	...........	-327.66
	335	0.0672	-2.19688E-001	-2.61364E-005	0.00000E+000	-2.20000E-001	1.19022E-003	7	...........	-327.66
	336	0.0674	-2.29713E-001	-2.64725E-005	0.00000E+000	-2.30000E-001	1.29022E-003	7	...........	-327.66
	337	0.0676	-2.39825E-001	-2.68040E-005	0.00000E+000	-2.40000E-001	1.06522E-003	7	...........	-327.66
	338	0.0678	-2.49800E-001	-2.71328E-005	0.00000E+000	-2.50000E-001	1.01522E-003	7	...........	-327.66
	339	0.068	-2.59813E-001	-2.74591E-005	0.00000E+000	-2.60000E-001	1.11522E-003	7	...........	-327.66
	340	0.0682	-2.69713E-001	-2.77774E-005	0.00000E+000	-2.70000E-001	1.04022E-003	7	...........	-327.66
	341	0.0684	-2.79750E-001	-2.80972E-005	0.00000E+000	-2.80000E-001	1.04022E-003	7	...........	-327.66
	342	0.0686	-2.89713E-001	-2.84125E-005	0.00000E+000	-2.90000E-001	1.16522E-003	7	...........	-327.66
	343	0.0688	-2.99800E-001	-2.87270E-005	0.00000E+000	-3.00000E-001	1.16522E-003	7	...........	-327.66
	344	0.069	-3.09650E-001	-2.90353E-005	0.00000E+000	-3.10000E-001	1.21522E-003	7	...........	-327.66
	345	0.0692	-3.19800E-001	-2.93441E-005	0.00000E+000	-3.20000E-001	1.04022E-003	7	...........	-327.66
	346	0.0694	-3.29838E-001	-2.96444E-005	0.00000E+000	-3.30000E-001	1.19022E-003	7	...........	-327.66
	347	0.0696	-3.39763E-001	-2.99409E-005	0.00000E+000	-3.40000E-001	1.11522E-003	7	...........	-327.66
	348	0.0698	-3.49763E-001	-3.02342E-005	0.00000E+000	-3.50000E-001	1.11522E-003	7	...........	-327.66
	349	0.07	-3.59763E-001	-3.05275E-005	0.00000E+000	-3.60000E-001	1.01522E-003	7	...........	-327.66
	350	0.0702	-3.69688E-001	-3.08140E-005	0.00000E+000	-3.70000E-001	1.16522E-003	7	...........	-327.66
	351	0.0704	-3.79675E-001	-3.10973E-005	0.00000E+000	-3.80000E-001	1.04022E-003	7	...........	-327.66
	352	0.0706	-3.89738E-001	-3.13769E-005	0.00000E+000	-3.90000E-001	1.16522E-003	7	...........	-327.66
	353	0.0708	-3.99725E-001	-3.16562E-005	0.00000E+000	-4.00000E-001	1.14022E-003	7	...........	-327.66
	354	0.071	-4.09738E-001	-3.19307E-005	0.00000E+000	-4.10000E-001	1.21522E-003	7	...........	-327.66
	355	0.0712	-4.19638E-001	-3.21932E-005	0.00000E+000	-4.20000E-001	1.14022E-003	7	...........	-327.66
	356	0.0714	-4.29663E-001	-3.24595E-005	0.00000E+000	-4.30000E-001	1.14022E-003	7	...........	-327.66
	357	0.0716	-4.39750E-001	-3.27191E-005	0.00000E+000	-4.40000E-001	1.11522E-003	7	...........	-327.66
	358	0.0718	-4.49613E-001	-3.29738E-005	0.00000E+000	-4.50000E-001	1.16522E-003	7	...........	-327.66
	359	0.072	-4.59575E-001	-3.32274E-005	0.00000E+000	-4.60000E-001	1.14022E-003	7	...........	-327.66
	360	0.0722	-4.69613E-001	-3.34747E-005	0.00000E+000	-4.70000E-001	1.19022E-003	7	...........	-327.66
	361	0.0724	-4.79663E-001	-3.37117E-005	0.00000E+000	-4.80000E-001	1.16522E-003	7	...........	-327.66
	362	0.0726	-4.89688E-001	-3.39475E-005	0.00000E+000	-4.90000E-001	1.01522E-003	7	...........	-327.66
	363	0.0728	-4.99650E-001	-3.41803E-005	0.00000E+000	-5.00000E-001	1.01522E-003	7	...........	-327.66
	364	0.073	-5.09663E-001	-3.44068E-005	0.00000E+000	-5.10000E-001	1.01522E-003	7	...........	-327.66
	365	0.0732	-5.19800E-001	-3.46311E-005	0.00000E+000	-5.20000E-001	1.14022E-003	7	...........	-327.66
	366	0.0734	-5.29738E-001	-3.48451E-005	0.00000E+000	-5.30000E-001	1.16522E-003	7	...........	-327.66
	367	0.0736	-5.39625E-001	-3.50544E-005	0.00000E+000	-5.40000E-001	1.14022E-003	7	...........	-327.66
	368	0.0738	-5.49625E-001	-3.52709E-005	0.00000E+000	-5.50000E-001	1.01522E-003	7	...........	-327.66
	369	0.074	-5.59638E-001	-3.54682E-005	0.00000E+000	-5.60000E-001	1.06522E-003	7	...........	-327.66
	370	0.0742	-5.69663E-001	-3.56640E-005	0.00000E+000	-5.70000E-001	1.01522E-003	7	...........	-327.66
	371	0.0744	-5.79688E-001	-3.58545E-005	0.00000E+000	-5.80000E-001	1.16522E-003	7	...........	-327.66
	372	0.0746	-5.89638E-001	-3.60385E-005	0.00000E+000	-5.90000E-001	1.29022E-003	7	...........	-327.66
	373	0.0748	-5.99625E-001	-3.62148E-005	0.00000E+000	-6.00000E-001	1.11522E-003	7	...........	-327.66
	374	0.075	-6.09688E-001	-3.63933E-005	0.00000E+000	-6.10000E-001	1.24022E-003	7	...........	-327.66
	375	0.0752	-6.19625E-001	-3.65568E-005	0.00000E+000	-6.20000E-001	1.09022E-003	7	...........	-327.66
	376	0.0754	-6.29575E-001	-3.67144E-005	0.00000E+000	-6.30000E-001	1.29022E-003	7	...........	-327.66
	377	0.0756	-6.39675E-001	-3.68699E-005	0.00000E+000	-6.40000E-001	1.09022E-003	7	...........	-327.66
	378	0.0758	-6.49650E-001	-3.70196E-005	0.00000E+000	-6.50000E-001	1.04022E-003	7	...........	-327.66
	379	0.076	-6.59638E-001	-3.71612E-005	0.00000E+000	-6.60000E-001	1.21522E-003	7	...........	-327.66
	380	0.0762	-6.69638E-001	-3.72927E-005	0.00000E+000	-6.70000E-001	1.01522E-003	7	...........	-327.66
	381	0.0764	-6.79625E-001	-3.74189E-005	0.00000E+000	-6.80000E-001	1.09022E-003	7	...........	-327.66
	382	0.0766	-6.89650E-001	-3.75327E-005	0.00000E+000	-6.90000E-001	1.14022E-003	7	...........	-327.66
	383	0.0768	-6.99700E-001	-3.76397E-005	0.00000E+000	-7.00000E-001	1.01522E-003	7	...........	-327.66
	384	0.077	-7.09625E-001	-3.77392E-005	0.00000E+000	-7.10000E-001	1.06522E-003	7	...........	-327.66
	385	0.0772	-7.19675E-001	-3.78280E-005	0.00000E+000	-7.20000E-001	8.40224E-004	7	...........	-327.66
	386	0.0774	-7.29663E-001	-3.79155E-005	0.00000E+000	-7.30000E-001	9.65224E-004	7	...........	-327.66
	387	0.0776	-7.39725E-001	-3.79880E-005	0.00000E+000	-7.40000E-001	1.11522E-003	7	...........	-327.66
	388	0.0778	-7.49650E-001	-3.80470E-005	0.00000E+000	-7.50000E-001	1.11522E-003	7	...........	-327.66
	389	0.078	-7.59625E-001	-3.80978E-005	0.00000E+000	-7.60000E-001	1.16522E-003	7	...........	-327.66
	390	0.0782	-7.69688E-001	-3.81350E-005	0.00000E+000	-7.70000E-001	1.09022E-003	7	...........	-327.66
	391	0.0784	-7.79538E-001	-3.81530E-005	0.00000E+000	-7.80000E-001	9.90224E-004	7	...........	-327.66
	392	0.0786	-7.89713E-001	-3.81650E-005	0.00000E+000	-7.90000E-001	9.65224E-004	7	...........	-327.66
	393	0.0788	-7.99575E-001	-3.81593E-005	0.00000E+000	-8.00000E-001	1.11522E-003	7	...........	-327.66
	394	0.079	-8.09650E-001	-3.81380E-005	0.00000E+000	-8.10000E-001	1.16522E-003	7	...........	-327.66
	395	0.0792	-8.19725E-001	-3.81008E-005	0.00000E+000	-8.20000E-001	1.04022E-003	7	...........	-327.66
	396	0.0794	-8.29625E-001	-3.80400E-005	0.00000E+000	-8.30000E-001	1.06522E-003	7	...........	-327.66
	397	0.0796	-8.39675E-001	-3.79650E-005	0.00000E+000	-8.40000E-001	1.11522E-003	7	...........	-327.66
	398	0.0798	-8.49663E-001	-3.78615E-005	0.00000E+000	-8.50000E-001	1.09022E-003	7	...........	-327.66
	399	0.08	-8.59700E-001	-3.77387E-005	0.00000E+000	-8.60000E-001	1.11522E-003	7	...........	-327.66
	400	0.0802	-8.69625E-001	-3.75905E-005	0.00000E+000	-8.70000E-001	1.11522E-003	7	...........	-327.66
	401	0.0804	-8.79575E-001	-3.74107E-005	0.00000E+000	-8.80000E-001	1.21522E-003	7	...........	-327.66
	402	0.0806	-8.89700E-001	-3.72047E-005	0.00000E+000	-8.90000E-001	1.06522E-003	7	...........	-327.66
	403	0.0808	-8.99725E-001	-3.69681E-005	0.00000E+000	-9.00000E-001	1.01522E-003	7	...........	-327.66
	404	0.081	-8.89725E-001	-3.44290E-005	0.00000E+000	-8.90000E-001	1.24022E-003	7	...........	-327.66
	405	0.0812	-8.79900E-001	-3.18314E-005	0.00000E+000	-8.80000E-001	1.14022E-003	7	...........	-327.66
	406	0.0814	-8.69713E-001	-2.95071E-005	0.00000E+000	-8.70000E-001	1.11522E-003	7	...........	-327.66
	407	0.0816	-8.59725E-001	-2.73848E-005	0.00000E+000	-8.60000E-001	1.01522E-003	7	...........	-327.66
	408	0.0818	-8.49788E-001	-2.54183E-005	0.00000E+000	-8.50000E-001	9.90224E-004	7	...........	-327.66
	409	0.082	-8.39850E-001	-2.35798E-005	0.00000E+000	-8.40000E-001	1.14022E-003	7	...........	-327.66
	410	0.0822	-8.29663E-001	-2.18541E-005	0.00000E+000	-8.30000E-001	1.14022E-003	7	...........	-327.66
	411	0.0824	-8.19700E-001	-2.02211E-005	0.00000E+000	-8.20000E-001	1.04022E-003	7	...........	-327.66
	412	0.0826	-8.09725E-001	-1.86744E-005	0.00000E+000	-8.10000E-001	1.06522E-003	7	...........	-327.66
	413	0.0828	-7.99825E-001	-1.72049E-005	0.00000E+000	-8.00000E-001	1.09022E-003	7	...........	-327.66
	414	0.083	-7.89688E-001	-1.58123E-005	0.00000E+000	-7.90000E-001	1.09022E-003	7	...........	-327.66
	415	0.0832	-7.79763E-001	-1.44801E-005	0.00000E+000	-7.80000E-001	1.11522E-003	7	...........	-327.66
	416	0.0834	-7.69813E-001	-1.32106E-005	0.00000E+000	-7.70000E-001	1.16522E-003	7	...........	-327.66
	417	0.0836	-7.59875E-001	-1.19985E-005	0.00000E+000	-7.60000E-001	1.21522E-003	7	...........	-327.66
	418	0.0838	-7.49725E-001	-1.08403E-005	0.00000E+000	-7.50000E-001	1.11522E-003	7	...........	-327.66
	419	0.084	-7.39875E-001	-9.73592E-006	0.00000E+000	-7.40000E-001	1.21522E-003	7	...........	-327.66
	420	0.0842	-7.29688E-001	-8.67603E-006	0.00000E+000	-7.30000E-001	8.90224E-004	7	...........	-327.66
	421	0.0844	-7.19913E-001	-7.66239E-006	0.00000E+000	-7.20000E-001	1.04022E-003	7	...........	-327.66
	422	0.0846	-7.09675E-001	-6.69076E-006	0.00000E+000	-7.10000E-001	1.19022E-003	7	...........	-327.66
	423	0.0848	-6.99800E-001	-5.76138E-006	0.00000E+000	-7.00000E-001	9.90224E-004	7	...........	-327.66
	424	0.085	-6.89775E-001	-4.86676E-006	0.00000E+000	-6.90000E-001	9.90224E-004	7	...........	-327.66
	425	0.0852	-6.79838E-001	-3.99939E-006	0.00000E+000	-6.80000E-001	1.06522E-003	7	...........	-327.66
	426	0.0854	-6.69700E-001	-3.17078E-006	0.00000E+000	-6.70000E-001	1.11522E-003	7	...........	-327.66
	427	0.0856	-6.59813E-001	-2.36917E-006	0.00000E+000	-6.60000E-001	9.40224E-004	7	...........	-327.66
	428	0.0858	-6.49763E-001	-1.59106E-006	0.00000E+000	-6.50000E-001	1.09022E-003	7	...........	-327.66
	429	0.086	-6.39850E-001	-8.37710E-007	0.00000E+000	-6.40000E-001	1.06522E-003	7	...........	-327.66
	430	0.0862	-6.29763E-001	-1.04860E-007	0.00000E+000	-6.30000E-001	1.24022E-003	7	...........	-327.66
	431	0.0864	-6.19913E-001	6.11737E-007	0.00000E+000	-6.20000E-001	1.14022E-003	7	...........	-327.66
	432	0.0866	-6.09888E-001	1.31183E-006	0.00000E+000	-6.10000E-001	1.01522E-003	7	...........	-327.66
	433	0.0868	-6.00075E-001	1.99893E-006	0.00000E+000	-6.00000E-001	9.65224E-004	7	...........	-327.66
	434	0.087	-5.89850E-001	2.67602E-006	0.00000E+000	-5.90000E-001	1.06522E-003	7	...........	-327.66
	435	0.0872	-5.79925E-001	3.34236E-006	0.00000E+000	-5.80000E-001	1.16522E-003	7	...........	-327.66
	436	0.0874	-5.69813E-001	4.00395E-006	0.00000E+000	-5.70000E-001	1.14022E-003	7	...........	-327.66
	437	0.0876	-5.59950E-001	4.66529E-006	0.00000E+000	-5.60000E-001	1.09022E-003	7	...........	-327.66
	438	0.0878	-5.49838E-001	5.31888E-006	0.00000E+000	-5.50000E-001	1.21522E-003	7	...........	-327.66
	439	0.088	-5.39863E-001	5.97097E-006	0.00000E+000	-5.40000E-001	1.06522E-003	7	...........	-327.66
	440	0.0882	-5.29913E-001	6.62531E-006	0.00000E+000	-5.30000E-001	1.04022E-003	7	...........	-327.66
	441	0.0884	-5.19875E-001	7.28115E-006	0.00000E+000	-5.20000E-001	1.29022E-003	7	...........	-327.66
	442	0.0886	-5.09838E-001	7.94724E-006	0.00000E+000	-5.10000E-001	1.11522E-003	7	...........	-327.66
	443	0.0888	-4.99850E-001	8.61433E-006	0.00000E+000	-5.00000E-001	1.19022E-003	7	...........	-327.66
	444	0.089	-4.89963E-001	9.28892E-006	0.00000E+000	-4.90000E-001	1.01522E-003	7	...........	-327.66
	445	0.0892	-4.79950E-001	9.96451E-006	0.00000E+000	-4.80000E-001	1.19022E-003	7	...........	-327.66
	446	0.0894	-4.69825E-001	1.06511E-005	0.00000E+000	-4.70000E-001	1.11522E-003	7	...........	-327.66
	447	0.0896	-4.59950E-001	1.13440E-005	0.00000E+000	-4.60000E-001	1.16522E-003	7	...........	-327.66
	448	0.0898	-4.49975E-001	1.20483E-005	0.00000E+000	-4.50000E-001	1.14022E-003	7	...........	-327.66
	449	0.09	-4.40025E-001	1.27526E-005	0.00000E+000	-4.40000E-001	1.19022E-003	7	...........	-327.66
	450	0.0902	-4.29950E-001	1.34667E-005	0.00000E+000	-4.30000E-001	1.21522E-003	7	...........	-327.66
	451	0.0904	-4.20000E-001	1.41843E-005	0.00000E+000	-4.20000E-001	1.06522E-003	7	...........	-327.66
	452	0.0906	-4.09975E-001	1.49114E-005	0.00000E+000	-4.10000E-001	1.11522E-003	7	...........	-327.66
	453	0.0908	-4.00013E-001	1.56380E-005	0.00000E+000	-4.00000E-001	1.19022E-003	7	...........	-327.66
	454	0.091	-3.90063E-001	1.63706E-005	0.00000E+000	-3.90000E-001	1.19022E-003	7	...........	-327.66
	455	0.0912	-3.80063E-001	1.70982E-005	0.00000E+000	-3.80000E-001	1.11522E-003	7	...........	-327.66
	456	0.0914	-3.69750E-001	1.78276E-005	0.00000E+000	-3.70000E-001	1.29022E-003	7	...........	-327.66
	457	0.0916	-3.60038E-001	1.85519E-005	0.00000E+000	-3.60000E-001	1.24022E-003	7	...........	-327.66
	458	0.0918	-3.50038E-001	1.92710E-005	0.00000E+000	-3.50000E-001	1.06522E-003	7	...........	-327.66
	459	0.092	-3.40038E-001	1.99826E-005	0.00000E+000	-3.40000E-001	1.19022E-003	7	...........	-327.66
	460	0.0922	-3.30063E-001	2.06872E-005	0.00000E+000	-3.30000E-001	1.19022E-003	7	...........	-327.66
	461	0.0924	-3.20063E-001	2.13781E-005	0.00000E+000	-3.20000E-001	1.21522E-003	7	...........	-327.66
	462	0.0926	-3.09988E-001	2.20579E-005	0.00000E+000	-3.10000E-001	9.90224E-004	7	...........	-327.66
	463	0.0928	-3.00000E-001	2.27175E-005	0.00000E+000	-3.00000E-001	1.11522E-003	7	...........	-327.66
	464	0.093	-2.89938E-001	2.33651E-005	0.00000E+000	-2.90000E-001	1.19022E-003	7	...........	-327.66
	465	0.0932	-2.80063E-001	2.39904E-005	0.00000E+000	-2.80000E-001	1.21522E-003	7	...........	-327.66
	466	0.0934	-2.69938E-001	2.46013E-005	0.00000E+000	-2.70000E-001	1.11522E-003	7	...........	-327.66
	467	0.0936	-2.60050E-001	2.51846E-005	0.00000E+000	-2.60000E-001	1.16522E-003	7	...........	-327.66
	468	0.0938	-2.50013E-001	2.57474E-005	0.00000E+000	-2.50000E-001	1.29022E-003	7	...........	-327.66
	469	0.094	-2.40013E-001	2.62912E-005	0.00000E+000	-2.40000E-001	1.19022E-003	7	...........	-327.66
	470	0.0942	-2.29925E-001	2.68086E-005	0.00000E+000	-2.30000E-001	1.14022E-003	7	...........	-327.66
	471	0.0944	-2.19988E-001	2.73071E-005	0.00000E+000	-2.20000E-001	1.11522E-003	7	...........	-327.66
	472	0.0946	-2.10000E-001	2.77807E-005	0.00000E+000	-2.10000E-001	1.29022E-003	7	...........	-327.66
	473	0.0948	-2.00050E-001	2.82297E-005	0.00000E+000	-2.00000E-001	1.19022E-003	7	...........	-327.66
	474	0.095	-1.89938E-001	2.86638E-005	0.00000E+000	-1.90000E-001	1.16522E-003	7	...........	-327.66
	475	0.0952	-1.80063E-001	2.90706E-005	0.00000E+000	-1.80000E-001	1.04022E-003	7	...........	-327.66
	476	0.0954	-1.70038E-001	2.94532E-005	0.00000E+000	-1.70000E-001	1.16522E-003	7	...........	-327.66
	477	0.0956	-1.60050E-001	2.98192E-005	0.00000E+000	-1.60000E-001	1.09022E-003	7	...........	-327.66
	478	0.0958	-1.50100E-001	3.01640E-005	0.00000E+000	-1.50000E-001	9.65224E-004	7	...........	-327.66
	479	0.096	-1.40050E-001	3.04938E-005	0.00000E+000	-1.40000E-001	1.14022E-003	7	...........	-327.66
	480	0.0962	-1.30013E-001	3.08086E-005	0.00000E+000	-1.30000E-001	1.09022E-003	7	...........	-327.66
	481	0.0964	-1.20038E-001	3.11006E-005	0.00000E+000	-1.20000E-001	1.06522E-003	7	...........	-327.66
	482	0.0966	-1.10125E-001	3.13784E-005	0.00000E+000	-1.10000E-001	1.24022E-003	7	...........	-327.66
	483	0.0968	-1.00038E-001	3.16417E-005	0.00000E+000	-1.00000E-001	1.11522E-003	7	...........	-327.66
	484	0.097	-9.00627E-002	3.18912E-005	0.00000E+000	-9.00000E-002	1.29022E-003	7	...........	-327.66
	485	0.0972	-8.00627E-002	3.21228E-005	0.00000E+000	-8.00000E-002	1.11522E-003	7	...........	-327.66
	486	0.0974	-7.00002E-002	3.23506E-005	0.00000E+000	-7.00000E-002	1.14022E-003	7	...........	-327.66
	487	0.0976	-6.00877E-002	3.25593E-005	0.00000E+000	-6.00000E-002	1.04022E-003	7	...........	-327.66
	488	0.0978	-5.00502E-002	3.27661E-005	0.00000E+000	-5.00000E-002	1.06522E-003	7	...........	-327.66
	489	0.098	-4.00502E-002	3.29634E-005	0.00000E+000	-4.00000E-002	1.09022E-003	7	...........	-327.66
	490	0.0982	-3.01002E-002	3.31439E-005	0.00000E+000	-3.00000E-002	1.11522E-003	7	...........	-327.66
	491	0.0984	-2.00627E-002	3.33129E-005	0.00000E+000	-2.00000E-002	1.11522E-003	7	...........	-327.66
	492	0.0986	-1.00002E-002	3.34760E-005	0.00000E+000	-1.00000E-002	1.19022E-003	7	...........	-327.66
	493	0.0988	-6.26875E-005	3.36245E-005	0.00000E+000	-1.49012E-008	1.11522E-003	7	...........	-327.66
	494	0.099	9.93731E-003	3.37620E-005	0.00000E+000	9.99999E-003	9.90224E-004	7	...........	-327.66
	495	0.0992	1.99373E-002	3.38880E-005	0.00000E+000	2.00000E-002	1.06522E-003	7	...........	-327.66
	496	0.0994	2.99123E-002	3.40055E-005	0.00000E+000	3.00000E-002	1.01522E-003	7	...........	-327.66
	497	0.0996	3.98123E-002	3.41146E-005	0.00000E+000	4.00000E-002	1.01522E-003	7	...........	-327.66
	498	0.0998	4.99373E-002	3.42108E-005	0.00000E+000	5.00000E-002	1.16522E-003	7	...........	-327.66
	499	0.1	5.99373E-002	3.42976E-005	0.00000E+000	6.00000E-002	1.06522E-003	7	...........	-327.66
	500	0.1002	6.98873E-002	3.43786E-005	0.00000E+000	7.00000E-002	9.90224E-004	7	...........	-327.66
	501	0.1004	7.99623E-002	3.44516E-005	0.00000E+000	8.00000E-002	1.16522E-003	7	...........	-327.66
	502	0.1006	9.01123E-002	3.45119E-005	0.00000E+000	9.00000E-002	1.09022E-003	7	...........	-327.66
	503	0.1008	9.99373E-002	3.45691E-005	0.00000E+000	1.00000E-001	9.90224E-004	7	...........	-327.66
	504	0.101	1.09912E-001	3.46136E-005	0.00000E+000	1.10000E-001	1.06522E-003	7	...........	-327.66
	505	0.1012	1.19912E-001	3.46579E-005	0.00000E+000	1.20000E-001	1.09022E-003	7	...........	-327.66
	506	0.1014	1.29937E-001	3.46904E-005	0.00000E+000	1.30000E-001	1.09022E-003	7	...........	-327.66
	507	0.1016	1.40012E-001	3.47176E-005	0.00000E+000	1.40000E-001	1.09022E-003	7	...........	-327.66
	508	0.1018	1.49987E-001	3.47346E-005	0.00000E+000	1.50000E-001	1.21522E-003	7	...........	-327.66
	509	0.102	1.59937E-001	3.47486E-005	0.00000E+000	1.60000E-001	1.09022E-003	7	...........	-327.66
	510	0.1022	1.69987E-001	3.47554E-005	0.00000E+000	1.70000E-001	1.09022E-003	7	...........	-327.66
	511	0.1024	1.79937E-001	3.47526E-005	0.00000E+000	1.80000E-001	1.16522E-003	7	...........	-327.66
	512	0.1026	1.89925E-001	3.47459E-005	0.00000E+000	1.90000E-001	1.04022E-003	7	...........	-327.66
	513	0.1028	1.99937E-001	3.47311E-005	0.00000E+000	2.00000E-001	1.04022E-003	7	...........	-327.66
	514	0.103	2.09912E-001	3.47091E-005	0.00000E+000	2.10000E-001	9.90224E-004	7	...........	-327.66
	515	0.1032	2.19887E-001	3.46891E-005	0.00000E+000	2.20000E-001	1.29022E-003	7	...........	-327.66
	516	0.1034	2.29937E-001	3.46541E-005	0.00000E+000	2.30000E-001	1.14022E-003	7	...........	-327.66
	517	0.1036	2.39912E-001	3.46201E-005	0.00000E+000	2.40000E-001	1.01522E-003	7	...........	-327.66
	518	0.1038	2.49975E-001	3.45801E-005	0.00000E+000	2.50000E-001	1.09022E-003	7	...........	-327.66
	519	0.104	2.59925E-001	3.45324E-005	0.00000E+000	2.60000E-001	1.11522E-003	7	...........	-327.66
	520	0.1042	2.70075E-001	3.44816E-005	0.00000E+000	2.70000E-001	1.21522E-003	7	...........	-327.66
	521	0.1044	2.79937E-001	3.44188E-005	0.00000E+000	2.80000E-001	1.06522E-003	7	...........	-327.66
	522	0.1046	2.89912E-001	3.43621E-005	0.00000E+000	2.90000E-001	9.65224E-004	7	...........	-327.66
	523	0.1048	2.99937E-001	3.42976E-005	0.00000E+000	3.00000E-001	1.01522E-003	7	...........	-327.66
	524	0.105	3.09925E-001	3.42308E-005	0.00000E+000	3.10000E-001	1.14022E-003	7	...........	-327.66
	525	0.1052	3.19887E-001	3.41578E-005	0.00000E+000	3.20000E-001	1.04022E-003	7	...........	-327.66
	526	0.1054	3.29937E-001	3.40858E-005	0.00000E+000	3.30000E-001	1.14022E-003	7	...........	-327.66
	527	0.1056	3.39937E-001	3.40060E-005	0.00000E+000	3.40000E-001	1.21522E-003	7	...........	-327.66
	528	0.1058	3.49987E-001	3.39218E-005	0.00000E+000	3.50000E-001	1.14022E-003	7	...........	-327.66
	529	0.106	3.59887E-001	3.38408E-005	0.00000E+000	3.60000E-001	1.14022E-003	7	...........	-327.66
	530	0.1062	3.69962E-001	3.37563E-005	0.00000E+000	3.70000E-001	1.29022E-003	7	...........	-327.66
	531	0.1064	3.79937E-001	3.36640E-005	0.00000E+000	3.80000E-001	1.19022E-003	7	...........	-327.66
	532	0.1066	3.89887E-001	3.35732E-005	0.00000E+000	3.90000E-001	1.06522E-003	7	...........	-327.66
	533	0.1068	3.99912E-001	3.34827E-005	0.00000E+000	4.00000E-001	1.19022E-003	7	...........	-327.66
	534	0.107	4.09862E-001	3.33930E-005	0.00000E+000	4.10000E-001	1.21522E-003	7	...........	-327.66
	535	0.1072	4.19962E-001	3.32979E-005	0.00000E+000	4.20000E-001	1.24022E-003	7	...........	-327.66
	536	0.1074	4.29987E-001	3.32039E-005	0.00000E+000	4.30000E-001	1.14022E-003	7	...........	-327.66
	537	0.1076	4.39887E-001	3.31057E-005	0.00000E+000	4.40000E-001	1.19022E-003	7	...........	-327.66
	538	0.1078	4.49900E-001	3.30134E-005	0.00000E+000	4.50000E-001	1.11522E-003	7	...........	-327.66
	539	0.108	4.59912E-001	3.29214E-005	0.00000E+000	4.60000E-001	1.16522E-003	7	...........	-327.66
	540	0.1082	4.69937E-001	3.28299E-005	0.00000E+000	4.70000E-001	1.19022E-003	7	...........	-327.66
	541	0.1084	4.79912E-001	3.27374E-005	0.00000E+000	4.80000E-001	1.11522E-003	7	...........	-327.66
	542	0.1086	4.89900E-001	3.26489E-005	0.00000E+000	4.90000E-001	1.21522E-003	7	...........	-327.66
	543	0.1088	4.99975E-001	3.25608E-005	0.00000E+000	5.00000E-001	1.04022E-003	7	...........	-327.66
	544	0.109	5.09987E-001	3.24763E-005	0.00000E+000	5.10000E-001	1.16522E-003	7	...........	-327.66
	545	0.1092	5.19912E-001	3.23963E-005	0.00000E+000	5.20000E-001	1.14022E-003	7	...........	-327.66
	546	0.1094	5.29937E-001	3.23148E-005	0.00000E+000	5.30000E-001	1.14022E-003	7	...........	-327.66
	547	0.1096	5.39937E-001	3.22360E-005	0.00000E+000	5.40000E-001	1.09022E-003	7	...........	-327.66
	548	0.1098	5.50000E-001	3.21698E-005	0.00000E+000	5.50000E-001	1.21522E-003	7	...........	-327.66
	549	0.11	5.59912E-001	3.21003E-005	0.00000E+000	5.60000E-001	1.11522E-003	7	...........	-327.66
	550	0.1102	5.70050E-001	3.20383E-005	0.00000E+000	5.70000E-001	1.19022E-003	7	...........	-327.66
	551	0.1104	5.79962E-001	3.19740E-005	0.00000E+000	5.80000E-001	1.14022E-003	7	...........	-327.66
	552	0.1106	5.89862E-001	3.19198E-005	0.00000E+000	5.90000E-001	1.06522E-003	7	...........	-327.66
	553	0.1108	5.99975E-001	3.18750E-005	0.00000E+000	6.00000E-001	1.16522E-003	7	...........	-327.66
CURVE3	TABLE
	Pt	T	Vf	Im	Vu	Sig	Ach	IERange	Over	Temp
	#	s	V vs. Ref.	A	V	V	V	#	bits	deg C
	554	0.111	5.89975E-001	2.90026E-005	0.00000E+000	5.90000E-001	1.16522E-003	7	...........	-327.66
	555	0.1112	5.79937E-001	2.62422E-005	0.00000E+000	5.80000E-001	1.01522E-003	7	...........	-327.66
	556	0.1114	5.70037E-001	2.39062E-005	0.00000E+000	5.70000E-001	1.01522E-003	7	...........	-327.66
	557	0.1116	5.59912E-001	2.18606E-005	0.00000E+000	5.60000E-001	9.90224E-004	7	...........	-327.66
	558	0.1118	5.50025E-001	2.00251E-005	0.00000E+000	5.50000E-001	1.14022E-003	7	...........	-327.66
	559	0.112	5.39937E-001	1.83559E-005	0.00000E+000	5.40000E-001	1.04022E-003	7	...........	-327.66
	560	0.1122	5.29937E-001	1.68184E-005	0.00000E+000	5.30000E-001	1.06522E-003	7	...........	-327.66
	561	0.1124	5.19962E-001	1.53805E-005	0.00000E+000	5.20000E-001	1.04022E-003	7	...........	-327.66
	562	0.1126	5.09912E-001	1.40458E-005	0.00000E+000	5.10000E-001	1.06522E-003	7	...........	-327.66
	563	0.1128	4.99987E-001	1.27891E-005	0.00000E+000	5.00000E-001	1.19022E-003	7	...........	-327.66
	564	0.113	4.89912E-001	1.15935E-005	0.00000E+000	4.90000E-001	1.09022E-003	7	...........	-327.66
	565	0.1132	4.80012E-001	1.04636E-005	0.00000E+000	4.80000E-001	1.11522E-003	7	...........	-327.66
	566	0.1134	4.69900E-001	9.38768E-006	0.00000E+000	4.70000E-001	1.11522E-003	7	...........	-327.66
	567	0.1136	4.59987E-001	8.35654E-006	0.00000E+000	4.60000E-001	1.06522E-003	7	...........	-327.66
	568	0.1138	4.50187E-001	7.37341E-006	0.00000E+000	4.50000E-001	1.06522E-003	7	...........	-327.66
	569	0.114	4.39987E-001	6.42528E-006	0.00000E+000	4.40000E-001	1.24022E-003	7	...........	-327.66
	570	0.1142	4.30012E-001	5.51466E-006	0.00000E+000	4.30000E-001	1.19022E-003	7	...........	-327.66
	571	0.1144	4.20012E-001	4.63954E-006	0.00000E+000	4.20000E-001	1.11522E-003	7	...........	-327.66
	572	0.1146	4.10100E-001	3.79067E-006	0.00000E+000	4.10000E-001	1.29022E-003	7	...........	-327.66
	573	0.1148	4.00075E-001	2.97006E-006	0.00000E+000	4.00000E-001	1.09022E-003	7	...........	-327.66
	574	0.115	3.89987E-001	2.17745E-006	0.00000E+000	3.90000E-001	1.16522E-003	7	...........	-327.66
	575	0.1152	3.79987E-001	1.40635E-006	0.00000E+000	3.80000E-001	1.16522E-003	7	...........	-327.66
	576	0.1154	3.70125E-001	6.62244E-007	0.00000E+000	3.70000E-001	1.14022E-003	7	...........	-327.66
	577	0.1156	3.59937E-001	-6.58551E-008	0.00000E+000	3.60000E-001	1.01522E-003	7	...........	-327.66
	578	0.1158	3.50075E-001	-7.75202E-007	0.00000E+000	3.50000E-001	1.21522E-003	7	...........	-327.66
	579	0.116	3.40000E-001	-1.46055E-006	0.00000E+000	3.40000E-001	1.14022E-003	7	...........	-327.66
	580	0.1162	3.30062E-001	-2.12939E-006	0.00000E+000	3.30000E-001	1.19022E-003	7	...........	-327.66
	581	0.1164	3.20000E-001	-2.78298E-006	0.00000E+000	3.20000E-001	1.11522E-003	7	...........	-327.66
	582	0.1166	3.10037E-001	-3.42381E-006	0.00000E+000	3.10000E-001	1.16522E-003	7	...........	-327.66
	583	0.1168	2.99975E-001	-4.04740E-006	0.00000E+000	3.00000E-001	1.21522E-003	7	...........	-327.66
	584	0.117	2.90137E-001	-4.65348E-006	0.00000E+000	2.90000E-001	1.01522E-003	7	...........	-327.66
	585	0.1172	2.79962E-001	-5.25031E-006	0.00000E+000	2.80000E-001	1.14022E-003	7	...........	-327.66
	586	0.1174	2.70037E-001	-5.83514E-006	0.00000E+000	2.70000E-001	1.11522E-003	7	...........	-327.66
	587	0.1176	2.60012E-001	-6.41272E-006	0.00000E+000	2.60000E-001	1.14022E-003	7	...........	-327.66
	588	0.1178	2.50237E-001	-6.96855E-006	0.00000E+000	2.50000E-001	1.21522E-003	7	...........	-327.66
	589	0.118	2.40100E-001	-7.51737E-006	0.00000E+000	2.40000E-001	1.11522E-003	7	...........	-327.66
	590	0.1182	2.30062E-001	-8.06320E-006	0.00000E+000	2.30000E-001	1.21522E-003	7	...........	-327.66
	591	0.1184	2.19950E-001	-8.59727E-006	0.00000E+000	2.20000E-001	1.09022E-003	7	...........	-327.66
	592	0.1186	2.10137E-001	-9.11809E-006	0.00000E+000	2.10000E-001	1.19022E-003	7	...........	-327.66
	593	0.1188	2.00187E-001	-9.63266E-006	0.00000E+000	2.00000E-001	1.14022E-003	7	...........	-327.66
	594	0.119	1.90175E-001	-1.01370E-005	0.00000E+000	1.90000E-001	1.19022E-003	7	...........	-327.66
	595	0.1192	1.80062E-001	-1.06365E-005	0.00000E+000	1.80000E-001	1.19022E-003	7	...........	-327.66
	596	0.1194	1.70200E-001	-1.11264E-005	0.00000E+000	1.70000E-001	1.11522E-003	7	...........	-327.66
	597	0.1196	1.60000E-001	-1.16129E-005	0.00000E+000	1.60000E-001	1.11522E-003	7	...........	-327.66
	598	0.1198	1.50237E-001	-1.20852E-005	0.00000E+000	1.50000E-001	1.11522E-003	7	...........	-327.66
	599	0.12	1.40212E-001	-1.25596E-005	0.00000E+000	1.40000E-001	1.11522E-003	7	...........	-327.66
	600	0.1202	1.30225E-001	-1.30226E-005	0.00000E+000	1.30000E-001	9.90224E-004	7	...........	-327.66
	601	0.1204	1.20125E-001	-1.34814E-005	0.00000E+000	1.20000E-001	1.11522E-003	7	...........	-327.66
	602	0.1206	1.10187E-001	-1.39287E-005	0.00000E+000	1.10000E-001	1.11522E-003	7	...........	-327.66
	603	0.1208	1.00062E-001	-1.43796E-005	0.00000E+000	1.00000E-001	9.90224E-004	7	...........	-327.66
	604	0.121	9.03123E-002	-1.48189E-005	0.00000E+000	9.00000E-002	1.16522E-003	7	...........	-327.66
	605	0.1212	8.00998E-002	-1.52564E-005	0.00000E+000	8.00000E-002	1.04022E-003	7	...........	-327.66
	606	0.1214	7.01873E-002	-1.56907E-005	0.00000E+000	7.00000E-002	1.09022E-003	7	...........	-327.66
	607	0.1216	6.01373E-002	-1.61190E-005	0.00000E+000	6.00000E-002	1.11522E-003	7	...........	-327.66
	608	0.1218	5.02123E-002	-1.65464E-005	0.00000E+000	5.00000E-002	1.11522E-003	7	...........	-327.66
	609	0.122	4.01748E-002	-1.69689E-005	0.00000E+000	4.00000E-002	1.09022E-003	7	...........	-327.66
	610	0.1222	3.01623E-002	-1.73847E-005	0.00000E+000	3.00000E-002	1.09022E-003	7	...........	-327.66
	611	0.1224	2.02123E-002	-1.77978E-005	0.00000E+000	2.00000E-002	1.01522E-003	7	...........	-327.66
	612	0.1226	1.02248E-002	-1.82076E-005	0.00000E+000	9.99999E-003	1.04022E-003	7	...........	-327.66
	613	0.1228	1.24813E-004	-1.86156E-005	0.00000E+000	-1.49012E-008	1.06522E-003	7	...........	-327.66
	614	0.123	-9.82519E-003	-1.90157E-005	0.00000E+000	-1.00000E-002	1.11522E-003	7	...........	-327.66
	615	0.1232	-1.98127E-002	-1.94177E-005	0.00000E+000	-2.00000E-002	9.90224E-004	7	...........	-327.66
	616	0.1234	-2.97752E-002	-1.98080E-005	0.00000E+000	-3.00000E-002	1.09022E-003	7	...........	-327.66
	617	0.1236	-3.98752E-002	-2.02041E-005	0.00000E+000	-4.00000E-002	1.24022E-003	7	...........	-327.66
	618	0.1238	-4.98627E-002	-2.05964E-005	0.00000E+000	-5.00000E-002	1.06522E-003	7	...........	-327.66
	619	0.124	-5.99502E-002	-2.09842E-005	0.00000E+000	-6.00000E-002	1.06522E-003	7	...........	-327.66
	620	0.1242	-6.96877E-002	-2.13618E-005	0.00000E+000	-7.00000E-002	1.21522E-003	7	...........	-327.66
	621	0.1244	-7.99252E-002	-2.17411E-005	0.00000E+000	-8.00000E-002	1.06522E-003	7	...........	-327.66
	622	0.1246	-8.98502E-002	-2.21186E-005	0.00000E+000	-9.00000E-002	8.65224E-004	7	...........	-327.66
	623	0.1248	-9.99252E-002	-2.24942E-005	0.00000E+000	-1.00000E-001	1.01522E-003	7	...........	-327.66
	624	0.125	-1.09763E-001	-2.28650E-005	0.00000E+000	-1.10000E-001	1.06522E-003	7	...........	-327.66
	625	0.1252	-1.19838E-001	-2.32335E-005	0.00000E+000	-1.20000E-001	1.14022E-003	7	...........	-327.66
	626	0.1254	-1.29913E-001	-2.35983E-005	0.00000E+000	-1.30000E-001	1.14022E-003	7	...........	-327.66
	627	0.1256	-1.39913E-001	-2.39621E-005	0.00000E+000	-1.40000E-001	1.01522E-003	7	...........	-327.66
	628	0.1258	-1.49825E-001	-2.43174E-005	0.00000E+000	-1.50000E-001	1.09022E-003	7	...........	-327.66
	629	0.126	-1.59913E-001	-2.46727E-005	0.00000E+000	-1.60000E-001	9.65224E-004	7	...........	-327.66
	630	0.1262	-1.69725E-001	-2.50243E-005	0.00000E+000	-1.70000E-001	1.14022E-003	7	...........	-327.66
	631	0.1264	-1.79788E-001	-2.53761E-005	0.00000E+000	-1.80000E-001	1.11522E-003	7	...........	-327.66
	632	0.1266	-1.89700E-001	-2.57174E-005	0.00000E+000	-1.90000E-001	1.16522E-003	7	...........	-327.66
	633	0.1268	-1.99875E-001	-2.60616E-005	0.00000E+000	-2.00000E-001	1.09022E-003	7	...........	-327.66
	634	0.127	-2.09763E-001	-2.63987E-005	0.00000E+000	-2.10000E-001	1.04022E-003	7	...........	-327.66
	635	0.1272	-2.19813E-001	-2.67372E-005	0.00000E+000	-2.20000E-001	9.40224E-004	7	...........	-327.66
	636	0.1274	-2.29650E-001	-2.70688E-005	0.00000E+000	-2.30000E-001	1.14022E-003	7	...........	-327.66
	637	0.1276	-2.39825E-001	-2.73921E-005	0.00000E+000	-2.40000E-001	1.09022E-003	7	...........	-327.66
	638	0.1278	-2.49713E-001	-2.77226E-005	0.00000E+000	-2.50000E-001	1.06522E-003	7	...........	-327.66
	639	0.128	-2.59788E-001	-2.80454E-005	0.00000E+000	-2.60000E-001	1.11522E-003	7	...........	-327.66
	640	0.1282	-2.69713E-001	-2.83580E-005	0.00000E+000	-2.70000E-001	1.24022E-003	7	...........	-327.66
	641	0.1284	-2.79750E-001	-2.86778E-005	0.00000E+000	-2.80000E-001	1.06522E-003	7	...........	-327.66
	642	0.1286	-2.89713E-001	-2.89893E-005	0.00000E+000	-2.90000E-001	9.65224E-004	7	...........	-327.66
	643	0.1288	-2.99813E-001	-2.92963E-005	0.00000E+000	-3.00000E-001	1.06522E-003	7	...........	-327.66
	644	0.129	-3.09750E-001	-2.96019E-005	0.00000E+000	-3.10000E-001	1.21522E-003	7	...........	-327.66
	645	0.1292	-3.19763E-001	-2.99009E-005	0.00000E+000	-3.20000E-001	1.21522E-003	7	...........	-327.66
	646	0.1294	-3.29813E-001	-3.01972E-005	0.00000E+000	-3.30000E-001	1.06522E-003	7	...........	-327.66
	647	0.1296	-3.39788E-001	-3.04900E-005	0.00000E+000	-3.40000E-001	1.09022E-003	7	...........	-327.66
	648	0.1298	-3.49700E-001	-3.07743E-005	0.00000E+000	-3.50000E-001	1.19022E-003	7	...........	-327.66
	649	0.13	-3.59725E-001	-3.10593E-005	0.00000E+000	-3.60000E-001	1.11522E-003	7	...........	-327.66
	650	0.1302	-3.69713E-001	-3.13444E-005	0.00000E+000	-3.70000E-001	1.01522E-003	7	...........	-327.66
	651	0.1304	-3.79813E-001	-3.16184E-005	0.00000E+000	-3.80000E-001	1.14022E-003	7	...........	-327.66
	652	0.1306	-3.89688E-001	-3.18894E-005	0.00000E+000	-3.90000E-001	1.16522E-003	7	...........	-327.66
	653	0.1308	-3.99775E-001	-3.21590E-005	0.00000E+000	-4.00000E-001	1.01522E-003	7	...........	-327.66
	654	0.131	-4.09813E-001	-3.24233E-005	0.00000E+000	-4.10000E-001	8.65224E-004	7	...........	-327.66
	655	0.1312	-4.19788E-001	-3.26821E-005	0.00000E+000	-4.20000E-001	8.90224E-004	7	...........	-327.66
	656	0.1314	-4.29663E-001	-3.29378E-005	0.00000E+000	-4.30000E-001	1.24022E-003	7	...........	-327.66
	657	0.1316	-4.39738E-001	-3.31864E-005	0.00000E+000	-4.40000E-001	9.90224E-004	7	...........	-327.66
	658	0.1318	-4.49675E-001	-3.34322E-005	0.00000E+000	-4.50000E-001	1.09022E-003	7	...........	-327.66
	659	0.132	-4.59788E-001	-3.36752E-005	0.00000E+000	-4.60000E-001	1.09022E-003	7	...........	-327.66
	660	0.1322	-4.69663E-001	-3.39120E-005	0.00000E+000	-4.70000E-001	1.16522E-003	7	...........	-327.66
	661	0.1324	-4.79713E-001	-3.41435E-005	0.00000E+000	-4.80000E-001	1.14022E-003	7	...........	-327.66
	662	0.1326	-4.89688E-001	-3.43698E-005	0.00000E+000	-4.90000E-001	1.11522E-003	7	...........	-327.66
	663	0.1328	-4.99613E-001	-3.45883E-005	0.00000E+000	-5.00000E-001	1.16522E-003	7	...........	-327.66
	664	0.133	-5.09650E-001	-3.48073E-005	0.00000E+000	-5.10000E-001	9.65224E-004	7	...........	-327.66
	665	0.1332	-5.19638E-001	-3.50224E-005	0.00000E+000	-5.20000E-001	1.24022E-003	7	...........	-327.66
	666	0.1334	-5.29650E-001	-3.52261E-005	0.00000E+000	-5.30000E-001	1.19022E-003	7	...........	-327.66
	667	0.1336	-5.39663E-001	-3.54242E-005	0.00000E+000	-5.40000E-001	1.14022E-003	7	...........	-327.66
	668	0.1338	-5.49650E-001	-3.56209E-005	0.00000E+000	-5.50000E-001	1.19022E-003	7	...........	-327.66
	669	0.134	-5.59725E-001	-3.58062E-005	0.00000E+000	-5.60000E-001	9.65224E-004	7	...........	-327.66
	670	0.1342	-5.69663E-001	-3.59900E-005	0.00000E+000	-5.70000E-001	1.16522E-003	7	...........	-327.66
	671	0.1344	-5.79725E-001	-3.61703E-005	0.00000E+000	-5.80000E-001	1.06522E-003	7	...........	-327.66
	672	0.1346	-5.89650E-001	-3.63423E-005	0.00000E+000	-5.90000E-001	1.21522E-003	7	...........	-327.66
	673	0.1348	-5.99588E-001	-3.65068E-005	0.00000E+000	-6.00000E-001	1.11522E-003	7	...........	-327.66
	674	0.135	-6.09738E-001	-3.66666E-005	0.00000E+000	-6.10000E-001	1.11522E-003	7	...........	-327.66
	675	0.1352	-6.19613E-001	-3.68224E-005	0.00000E+000	-6.20000E-001	1.19022E-003	7	...........	-327.66
	676	0.1354	-6.29613E-001	-3.69701E-005	0.00000E+000	-6.30000E-001	1.29022E-003	7	...........	-327.66
	677	0.1356	-6.39700E-001	-3.71089E-005	0.00000E+000	-6.40000E-001	1.04022E-003	7	...........	-327.66
	678	0.1358	-6.49675E-001	-3.72357E-005	0.00000E+000	-6.50000E-001	1.19022E-003	7	...........	-327.66
	679	0.136	-6.59700E-001	-3.73632E-005	0.00000E+000	-6.60000E-001	1.24022E-003	7	...........	-327.66
	680	0.1362	-6.69663E-001	-3.74812E-005	0.00000E+000	-6.70000E-001	1.11522E-003	7	...........	-327.66
	681	0.1364	-6.79638E-001	-3.75885E-005	0.00000E+000	-6.80000E-001	9.65224E-004	7	...........	-327.66
	682	0.1366	-6.89688E-001	-3.76897E-005	0.00000E+000	-6.90000E-001	1.19022E-003	7	...........	-327.66
	683	0.1368	-6.99688E-001	-3.77812E-005	0.00000E+000	-7.00000E-001	1.16522E-003	7	...........	-327.66
	684	0.137	-7.09663E-001	-3.78595E-005	0.00000E+000	-7.10000E-001	1.24022E-003	7	...........	-327.66
	685	0.1372	-7.19700E-001	-3.79323E-005	0.00000E+000	-7.20000E-001	9.40224E-004	7	...........	-327.66
	686	0.1374	-7.29713E-001	-3.79960E-005	0.00000E+000	-7.30000E-001	8.65224E-004	7	...........	-327.66
	687	0.1376	-7.39688E-001	-3.80473E-005	0.00000E+000	-7.40000E-001	1.14022E-003	7	...........	-327.66
	688	0.1378	-7.49663E-001	-3.80900E-005	0.00000E+000	-7.50000E-001	1.14022E-003	7	...........	-327.66
	689	0.138	-7.59700E-001	-3.81155E-005	0.00000E+000	-7.60000E-001	1.09022E-003	7	...........	-327.66
	690	0.1382	-7.69638E-001	-3.81340E-005	0.00000E+000	-7.70000E-001	1.11522E-003	7	...........	-327.66
	691	0.1384	-7.79513E-001	-3.81340E-005	0.00000E+000	-7.80000E-001	1.04022E-003	7	...........	-327.66
	692	0.1386	-7.89663E-001	-3.81223E-005	0.00000E+000	-7.90000E-001	1.09022E-003	7	...........	-327.66
	693	0.1388	-7.99713E-001	-3.80903E-005	0.00000E+000	-8.00000E-001	1.09022E-003	7	...........	-327.66
	694	0.139	-8.09613E-001	-3.80448E-005	0.00000E+000	-8.10000E-001	1.14022E-003	7	...........	-327.66
	695	0.1392	-8.19675E-001	-3.79800E-005	0.00000E+000	-8.20000E-001	1.29022E-003	7	...........	-327.66
	696	0.1394	-8.29613E-001	-3.78913E-005	0.00000E+000	-8.30000E-001	1.14022E-003	7	...........	-327.66
	697	0.1396	-8.39663E-001	-3.77832E-005	0.00000E+000	-8.40000E-001	1.09022E-003	7	...........	-327.66
	698	0.1398	-8.49650E-001	-3.76512E-005	0.00000E+000	-8.50000E-001	1.19022E-003	7	...........	-327.66
	699	0.14	-8.59650E-001	-3.74915E-005	0.00000E+000	-8.60000E-001	1.24022E-003	7	...........	-327.66
	700	0.1402	-8.69663E-001	-3.73032E-005	0.00000E+000	-8.70000E-001	1.21522E-003	7	...........	-327.66
	701	0.1404	-8.79600E-001	-3.70897E-005	0.00000E+000	-8.80000E-001	1.04022E-003	7	...........	-327.66
	702	0.1406	-8.89738E-001	-3.68416E-005	0.00000E+000	-8.90000E-001	1.01522E-003	7	...........	-327.66
	703	0.1408	-8.99700E-001	-3.65548E-005	0.00000E+000	-9.00000E-001	9.90224E-004	7	...........	-327.66
	704	0.141	-8.89650E-001	-3.40022E-005	0.00000E+000	-8.90000E-001	1.06522E-003	7	...........	-327.66
	705	0.1412	-8.79813E-001	-3.13816E-005	0.00000E+000	-8.80000E-001	1.24022E-003	7	...........	-327.66
	706	0.1414	-8.69650E-001	-2.90268E-005	0.00000E+000	-8.70000E-001	1.11522E-003	7	...........	-327.66
	707	0.1416	-8.59738E-001	-2.68755E-005	0.00000E+000	-8.60000E-001	1.09022E-003	7	...........	-327.66
	708	0.1418	-8.49738E-001	-2.48847E-005	0.00000E+000	-8.50000E-001	1.11522E-003	7	...........	-327.66
	709	0.142	-8.39775E-001	-2.30232E-005	0.00000E+000	-8.40000E-001	1.09022E-003	7	...........	-327.66
	710	0.1422	-8.29675E-001	-2.12795E-005	0.00000E+000	-8.30000E-001	1.16522E-003	7	...........	-327.66
	711	0.1424	-8.19900E-001	-1.96298E-005	0.00000E+000	-8.20000E-001	1.14022E-003	7	...........	-327.66
	712	0.1426	-8.09700E-001	-1.80718E-005	0.00000E+000	-8.10000E-001	1.04022E-003	7	...........	-327.66
	713	0.1428	-7.99688E-001	-1.66021E-005	0.00000E+000	-8.00000E-001	9.40224E-004	7	...........	-327.66
	714	0.143	-7.89700E-001	-1.52032E-005	0.00000E+000	-7.90000E-001	1.11522E-003	7	...........	-327.66
	715	0.1432	-7.79913E-001	-1.38810E-005	0.00000E+000	-7.80000E-001	1.11522E-003	7	...........	-327.66
	716	0.1434	-7.69813E-001	-1.26181E-005	0.00000E+000	-7.70000E-001	9.65224E-004	7	...........	-327.66
	717	0.1436	-7.59775E-001	-1.14152E-005	0.00000E+000	-7.60000E-001	1.14022E-003	7	...........	-327.66
	718	0.1438	-7.49763E-001	-1.02795E-005	0.00000E+000	-7.50000E-001	1.09022E-003	7	...........	-327.66
	719	0.144	-7.39813E-001	-9.19660E-006	0.00000E+000	-7.40000E-001	1.16522E-003	7	...........	-327.66
	720	0.1442	-7.29800E-001	-8.16096E-006	0.00000E+000	-7.30000E-001	1.01522E-003	7	...........	-327.66
	721	0.1444	-7.19825E-001	-7.17532E-006	0.00000E+000	-7.20000E-001	1.06522E-003	7	...........	-327.66
	722	0.1446	-7.09700E-001	-6.23070E-006	0.00000E+000	-7.10000E-001	1.14022E-003	7	...........	-327.66
	723	0.1448	-6.99888E-001	-5.33182E-006	0.00000E+000	-7.00000E-001	1.09022E-003	7	...........	-327.66
	724	0.145	-6.89813E-001	-4.47171E-006	0.00000E+000	-6.90000E-001	1.11522E-003	7	...........	-327.66
	725	0.1452	-6.79775E-001	-3.63984E-006	0.00000E+000	-6.80000E-001	1.19022E-003	7	...........	-327.66
	726	0.1454	-6.69763E-001	-2.84673E-006	0.00000E+000	-6.70000E-001	1.14022E-003	7	...........	-327.66
	727	0.1456	-6.59875E-001	-2.07913E-006	0.00000E+000	-6.60000E-001	1.21522E-003	7	...........	-327.66
	728	0.1458	-6.49813E-001	-1.33478E-006	0.00000E+000	-6.50000E-001	1.01522E-003	7	...........	-327.66
	729	0.146	-6.39888E-001	-6.14680E-007	0.00000E+000	-6.40000E-001	9.65224E-004	7	...........	-327.66
	730	0.1462	-6.29788E-001	8.26652E-008	0.00000E+000	-6.30000E-001	9.65224E-004	7	...........	-327.66
	731	0.1464	-6.19738E-001	7.68759E-007	0.00000E+000	-6.20000E-001	1.16522E-003	7	...........	-327.66
	732	0.1466	-6.09938E-001	1.43310E-006	0.00000E+000	-6.10000E-001	1.04022E-003	7	...........	-327.66
	733	0.1468	-5.99938E-001	2.09219E-006	0.00000E+000	-6.00000E-001	1.29022E-003	7	...........	-327.66
	734	0.147	-5.89888E-001	2.74128E-006	0.00000E+000	-5.90000E-001	1.11522E-003	7	...........	-327.66
	735	0.1472	-5.79875E-001	3.38036E-006	0.00000E+000	-5.80000E-001	1.04022E-003	7	...........	-327.66
	736	0.1474	-5.69813E-001	4.01820E-006	0.00000E+000	-5.70000E-001	1.09022E-003	7	...........	-327.66
	737	0.1476	-5.60013E-001	4.65229E-006	0.00000E+000	-5.60000E-001	1.19022E-003	7	...........	-327.66
	738	0.1478	-5.49763E-001	5.28787E-006	0.00000E+000	-5.50000E-001	1.24022E-003	7	...........	-327.66
	739	0.148	-5.39925E-001	5.92321E-006	0.00000E+000	-5.40000E-001	1.11522E-003	7	...........	-327.66
	740	0.1482	-5.29900E-001	6.56280E-006	0.00000E+000	-5.30000E-001	1.14022E-003	7	...........	-327.66
	741	0.1484	-5.20063E-001	7.20664E-006	0.00000E+000	-5.20000E-001	1.14022E-003	7	...........	-327.66
	742	0.1486	-5.09788E-001	7.86073E-006	0.00000E+000	-5.10000E-001	1.09022E-003	7	...........	-327.66
	743	0.1488	-4.99913E-001	8.51831E-006	0.00000E+000	-5.00000E-001	1.04022E-003	7	...........	-327.66
	744	0.149	-4.89988E-001	9.18566E-006	0.00000E+000	-4.90000E-001	1.11522E-003	7	...........	-327.66
	745	0.1492	-4.79988E-001	9.85725E-006	0.00000E+000	-4.80000E-001	1.01522E-003	7	...........	-327.66
	746	0.1494	-4.69738E-001	1.05438E-005	0.00000E+000	-4.70000E-001	1.11522E-003	7	...........	-327.66
	747	0.1496	-4.59913E-001	1.12377E-005	0.00000E+000	-4.60000E-001	1.09022E-003	7	...........	-327.66
	748	0.1498	-4.49825E-001	1.19403E-005	0.00000E+000	-4.50000E-001	1.16522E-003	7	...........	-327.66
	749	0.15	-4.39963E-001	1.26579E-005	0.00000E+000	-4.40000E-001	1.09022E-003	7	...........	-327.66
	750	0.1502	-4.29938E-001	1.33785E-005	0.00000E+000	-4.30000E-001	1.19022E-003	7	...........	-327.66
	751	0.1504	-4.20063E-001	1.41098E-005	0.00000E+000	-4.20000E-001	1.14022E-003	7	...........	-327.66
	752	0.1506	-4.09850E-001	1.48499E-005	0.00000E+000	-4.10000E-001	1.19022E-003	7	...........	-327.66
	753	0.1508	-3.99950E-001	1.55968E-005	0.00000E+000	-4.00000E-001	1.04022E-003	7	...........	-327.66
	754	0.151	-3.89938E-001	1.63471E-005	0.00000E+000	-3.90000E-001	1.16522E-003	7	...........	-327.66
	755	0.1512	-3.80013E-001	1.71005E-005	0.00000E+000	-3.80000E-001	9.65224E-004	7	...........	-327.66
	756	0.1514	-3.69775E-001	1.78548E-005	0.00000E+000	-3.70000E-001	1.11522E-003	7	...........	-327.66
	757	0.1516	-3.60000E-001	1.86074E-005	0.00000E+000	-3.60000E-001	1.09022E-003	7	...........	-327.66
	758	0.1518	-3.50038E-001	1.93550E-005	0.00000E+000	-3.50000E-001	1.14022E-003	7	...........	-327.66
	759	0.152	-3.39988E-001	2.00946E-005	0.00000E+000	-3.40000E-001	1.09022E-003	7	...........	-327.66
	760	0.1522	-3.30025E-001	2.08320E-005	0.00000E+000	-3.30000E-001	9.15224E-004	7	...........	-327.66
	761	0.1524	-3.20050E-001	2.15518E-005	0.00000E+000	-3.20000E-001	1.29022E-003	7	...........	-327.66
	762	0.1526	-3.09975E-001	2.22597E-005	0.00000E+000	-3.10000E-001	1.24022E-003	7	...........	-327.66
	763	0.1528	-2.99925E-001	2.29543E-005	0.00000E+000	-3.00000E-001	1.06522E-003	7	...........	-327.66
	764	0.153	-2.89938E-001	2.36314E-005	0.00000E+000	-2.90000E-001	1.14022E-003	7	...........	-327.66
	765	0.1532	-2.80075E-001	2.42847E-005	0.00000E+000	-2.80000E-001	1.04022E-003	7	...........	-327.66
	766	0.1534	-2.70000E-001	2.49221E-005	0.00000E+000	-2.70000E-001	1.21522E-003	7	...........	-327.66
	767	0.1536	-2.60063E-001	2.55324E-005	0.00000E+000	-2.60000E-001	1.16522E-003	7	...........	-327.66
	768	0.1538	-2.49913E-001	2.61195E-005	0.00000E+000	-2.50000E-001	1.06522E-003	7	...........	-327.66
	769	0.154	-2.40038E-001	2.66798E-005	0.00000E+000	-2.40000E-001	1.16522E-003	7	...........	-327.66
	770	0.1542	-2.30038E-001	2.72144E-005	0.00000E+000	-2.30000E-001	1.09022E-003	7	...........	-327.66
	771	0.1544	-2.19975E-001	2.77269E-005	0.00000E+000	-2.20000E-001	1.11522E-003	7	...........	-327.66
	772	0.1546	-2.10050E-001	2.82175E-005	0.00000E+000	-2.10000E-001	1.14022E-003	7	...........	-327.66
	773	0.1548	-1.99988E-001	2.86838E-005	0.00000E+000	-2.00000E-001	1.09022E-003	7	...........	-327.66
	774	0.155	-1.90038E-001	2.91241E-005	0.00000E+000	-1.90000E-001	1.11522E-003	7	...........	-327.66
	775	0.1552	-1.80000E-001	2.95362E-005	0.00000E+000	-1.80000E-001	1.14022E-003	7	...........	-327.66
	776	0.1554	-1.70063E-001	2.99337E-005	0.00000E+000	-1.70000E-001	1.01522E-003	7	...........	-327.66
	777	0.1556	-1.60050E-001	3.03013E-005	0.00000E+000	-1.60000E-001	1.11522E-003	7	...........	-327.66
	778	0.1558	-1.50088E-001	3.06528E-005	0.00000E+000	-1.50000E-001	1.14022E-003	7	...........	-327.66
	779	0.156	-1.40013E-001	3.09804E-005	0.00000E+000	-1.40000E-001	1.06522E-003	7	...........	-327.66
	780	0.1562	-1.30138E-001	3.12924E-005	0.00000E+000	-1.30000E-001	1.16522E-003	7	...........	-327.66
	781	0.1564	-1.20025E-001	3.15870E-005	0.00000E+000	-1.20000E-001	1.01522E-003	7	...........	-327.66
	782	0.1566	-1.09988E-001	3.18672E-005	0.00000E+000	-1.10000E-001	1.11522E-003	7	...........	-327.66
	783	0.1568	-1.00063E-001	3.21298E-005	0.00000E+000	-1.00000E-001	1.06522E-003	7	...........	-327.66
	784	0.157	-9.00377E-002	3.23731E-005	0.00000E+000	-9.00000E-002	9.90224E-004	7	...........	-327.66
	785	0.1572	-8.00627E-002	3.26053E-005	0.00000E+000	-8.00000E-002	1.21522E-003	7	...........	-327.66
	786	0.1574	-7.01377E-002	3.28344E-005	0.00000E+000	-7.00000E-002	1.11522E-003	7	...........	-327.66
	787	0.1576	-6.00627E-002	3.30472E-005	0.00000E+000	-6.00000E-002	1.01522E-003	7	...........	-327.66
	788	0.1578	-5.01002E-002	3.32499E-005	0.00000E+000	-5.00000E-002	1.06522E-003	7	...........	-327.66
	789	0.158	-4.00627E-002	3.34405E-005	0.00000E+000	-4.00000E-002	1.04022E-003	7	...........	-327.66
	790	0.1582	-3.00127E-002	3.36177E-005	0.00000E+000	-3.00000E-002	1.01522E-003	7	...........	-327.66
	791	0.1584	-2.00502E-002	3.37830E-005	0.00000E+000	-2.00000E-002	1.04022E-003	7	...........	-327.66
	792	0.1586	-9.96269E-003	3.39355E-005	0.00000E+000	-1.00000E-002	1.09022E-003	7	...........	-327.66
	793	0.1588	-8.76875E-005	3.40715E-005	0.00000E+000	-1.49012E-008	1.09022E-003	7	...........	-327.66
	794	0.159	9.93731E-003	3.42036E-005	0.00000E+000	9.99999E-003	1.11522E-003	7	...........	-327.66
	795	0.1592	1.99873E-002	3.43226E-005	0.00000E+000	2.00000E-002	1.09022E-003	7	...........	-327.66
	796	0.1594	2.99373E-002	3.44328E-005	0.00000E+000	3.00000E-002	1.16522E-003	7	...........	-327.66
	797	0.1596	3.98623E-002	3.45314E-005	0.00000E+000	4.00000E-002	1.21522E-003	7	...........	-327.66
	798	0.1598	4.99623E-002	3.46196E-005	0.00000E+000	5.00000E-002	1.16522E-003	7	...........	-327.66
	799	0.16	5.99498E-002	3.46991E-005	0.00000E+000	6.00000E-002	1.11522E-003	7	...........	-327.66
	800	0.1602	7.00373E-002	3.47739E-005	0.00000E+000	7.00000E-002	1.06522E-003	7	...........	-327.66
	801	0.1604	7.99373E-002	3.48372E-005	0.00000E+000	8.00000E-002	1.09022E-003	7	...........	-327.66
	802	0.1606	8.99123E-002	3.48947E-005	0.00000E+000	9.00000E-002	1.11522E-003	7	...........	-327.66
	803	0.1608	9.99373E-002	3.49454E-005	0.00000E+000	1.00000E-001	1.06522E-003	7	...........	-327.66
	804	0.161	1.09912E-001	3.49842E-005	0.00000E+000	1.10000E-001	1.21522E-003	7	...........	-327.66
	805	0.1612	1.19937E-001	3.50172E-005	0.00000E+000	1.20000E-001	1.19022E-003	7	...........	-327.66
	806	0.1614	1.29912E-001	3.50472E-005	0.00000E+000	1.30000E-001	9.15224E-004	7	...........	-327.66
	807	0.1616	1.39937E-001	3.50707E-005	0.00000E+000	1.40000E-001	1.04022E-003	7	...........	-327.66
	808	0.1618	1.49987E-001	3.50832E-005	0.00000E+000	1.50000E-001	1.19022E-003	7	...........	-327.66
	809	0.162	1.59937E-001	3.50914E-005	0.00000E+000	1.60000E-001	1.06522E-003	7	...........	-327.66
	810	0.1622	1.70112E-001	3.50877E-005	0.00000E+000	1.70000E-001	1.01522E-003	7	...........	-327.66
	811	0.1624	1.79937E-001	3.50857E-005	0.00000E+000	1.80000E-001	1.01522E-003	7	...........	-327.66
	812	0.1626	1.89875E-001	3.50714E-005	0.00000E+000	1.90000E-001	1.06522E-003	7	...........	-327.66
	813	0.1628	1.99987E-001	3.50574E-005	0.00000E+000	2.00000E-001	1.11522E-003	7	...........	-327.66
	814	0.163	2.09962E-001	3.50344E-005	0.00000E+000	2.10000E-001	1.06522E-003	7	...........	-327.66
	815	0.1632	2.19937E-001	3.50049E-005	0.00000E+000	2.20000E-001	9.90224E-004	7	...........	-327.66
	816	0.1634	2.29987E-001	3.49739E-005	0.00000E+000	2.30000E-001	1.11522E-003	7	...........	-327.66
	817	0.1636	2.39962E-001	3.49329E-005	0.00000E+000	2.40000E-001	1.06522E-003	7	...........	-327.66
	818	0.1638	2.50000E-001	3.48902E-005	0.00000E+000	2.50000E-001	9.90224E-004	7	...........	-327.66
	819	0.164	2.59912E-001	3.48386E-005	0.00000E+000	2.60000E-001	1.06522E-003	7	...........	-327.66
	820	0.1642	2.69925E-001	3.47844E-005	0.00000E+000	2.70000E-001	1.04022E-003	7	...........	-327.66
	821	0.1644	2.79887E-001	3.47264E-005	0.00000E+000	2.80000E-001	1.16522E-003	7	...........	-327.66
	822	0.1646	2.89875E-001	3.46654E-005	0.00000E+000	2.90000E-001	9.15224E-004	7	...........	-327.66
	823	0.1648	2.99937E-001	3.45999E-005	0.00000E+000	3.00000E-001	1.11522E-003	7	...........	-327.66
	824	0.165	3.09925E-001	3.45296E-005	0.00000E+000	3.10000E-001	1.06522E-003	7	...........	-327.66
	825	0.1652	3.19912E-001	3.44576E-005	0.00000E+000	3.20000E-001	1.04022E-003	7	...........	-327.66
	826	0.1654	3.29987E-001	3.43793E-005	0.00000E+000	3.30000E-001	1.11522E-003	7	...........	-327.66
	827	0.1656	3.39937E-001	3.43028E-005	0.00000E+000	3.40000E-001	1.14022E-003	7	...........	-327.66
	828	0.1658	3.49887E-001	3.42176E-005	0.00000E+000	3.50000E-001	1.14022E-003	7	...........	-327.66
	829	0.166	3.59912E-001	3.41366E-005	0.00000E+000	3.60000E-001	1.11522E-003	7	...........	-327.66
	830	0.1662	3.69912E-001	3.40513E-005	0.00000E+000	3.70000E-001	1.21522E-003	7	...........	-327.66
	831	0.1664	3.79937E-001	3.39618E-005	0.00000E+000	3.80000E-001	1.14022E-003	7	...........	-327.66
	832	0.1666	3.89912E-001	3.38693E-005	0.00000E+000	3.90000E-001	1.21522E-003	7	...........	-327.66
	833	0.1668	3.99937E-001	3.37785E-005	0.00000E+000	4.00000E-001	1.11522E-003	7	...........	-327.66
	834	0.167	4.09887E-001	3.36887E-005	0.00000E+000	4.10000E-001	1.06522E-003	7	...........	-327.66
	835	0.1672	4.19975E-001	3.35932E-005	0.00000E+000	4.20000E-001	1.04022E-003	7	...........	-327.66
	836	0.1674	4.29937E-001	3.35032E-005	0.00000E+000	4.30000E-001	1.19022E-003	7	...........	-327.66
	837	0.1676	4.39937E-001	3.34067E-005	0.00000E+000	4.40000E-001	1.21522E-003	7	...........	-327.66
	838	0.1678	4.50012E-001	3.33154E-005	0.00000E+000	4.50000E-001	1.14022E-003	7	...........	-327.66
	839	0.168	4.59937E-001	3.32242E-005	0.00000E+000	4.60000E-001	1.14022E-003	7	...........	-327.66
	840	0.1682	4.69887E-001	3.31292E-005	0.00000E+000	4.70000E-001	9.65224E-004	7	...........	-327.66
	841	0.1684	4.79912E-001	3.30449E-005	0.00000E+000	4.80000E-001	1.14022E-003	7	...........	-327.66
	842	0.1686	4.89925E-001	3.29551E-005	0.00000E+000	4.90000E-001	1.09022E-003	7	...........	-327.66
	843	0.1688	4.99937E-001	3.28666E-005	0.00000E+000	5.00000E-001	1.19022E-003	7	...........	-327.66
	844	0.169	5.09900E-001	3.27834E-005	0.00000E+000	5.10000E-001	1.24022E-003	7	...........	-327.66
	845	0.1692	5.19900E-001	3.27014E-005	0.00000E+000	5.20000E-001	1.06522E-003	7	...........	-327.66
	846	0.1694	5.30000E-001	3.26256E-005	0.00000E+000	5.30000E-001	1.06522E-003	7	...........	-327.66
	847	0.1696	5.39937E-001	3.25473E-005	0.00000E+000	5.40000E-001	9.65224E-004	7	...........	-327.66
	848	0.1698	5.49887E-001	3.24763E-005	0.00000E+000	5.50000E-001	1.04022E-003	7	...........	-327.66
	849	0.17	5.59887E-001	3.24096E-005	0.00000E+000	5.60000E-001	9.65224E-004	7	...........	-327.66
	850	0.1702	5.70025E-001	3.23496E-005	0.00000E+000	5.70000E-001	1.16522E-003	7	...........	-327.66
	851	0.1704	5.79975E-001	3.22896E-005	0.00000E+000	5.80000E-001	1.24022E-003	7	...........	-327.66
	852	0.1706	5.89900E-001	3.22370E-005	0.00000E+000	5.90000E-001	9.90224E-004	7	...........	-327.66
	853	0.1708	5.99950E-001	3.21858E-005	0.00000E+000	6.00000E-001	1.11522E-003	7	...........	-327.66
CURVE4	TABLE
	Pt	T	Vf	Im	Vu	Sig	Ach	IERange	Over	Temp
	#	s	V vs. Ref.	A	V	V	V	#	bits	deg C
	854	0.171	5.89937E-001	2.93026E-005	0.00000E+000	5.90000E-001	1.19022E-003	7	...........	-327.66
	855	0.1712	5.79937E-001	2.65240E-005	0.00000E+000	5.80000E-001	1.06522E-003	7	...........	-327.66
	856	0.1714	5.70037E-001	2.41624E-005	0.00000E+000	5.70000E-001	9.90224E-004	7	...........	-327.66
	857	0.1716	5.59937E-001	2.20944E-005	0.00000E+000	5.60000E-001	1.16522E-003	7	...........	-327.66
	858	0.1718	5.50000E-001	2.02349E-005	0.00000E+000	5.50000E-001	9.90224E-004	7	...........	-327.66
	859	0.172	5.39937E-001	1.85414E-005	0.00000E+000	5.40000E-001	1.21522E-003	7	...........	-327.66
	860	0.1722	5.29987E-001	1.69787E-005	0.00000E+000	5.30000E-001	1.21522E-003	7	...........	-327.66
	861	0.1724	5.19975E-001	1.55260E-005	0.00000E+000	5.20000E-001	1.04022E-003	7	...........	-327.66
	862	0.1726	5.10037E-001	1.41696E-005	0.00000E+000	5.10000E-001	1.11522E-003	7	...........	-327.66
	863	0.1728	5.00025E-001	1.28847E-005	0.00000E+000	5.00000E-001	9.90224E-004	7	...........	-327.66
	864	0.173	4.90087E-001	1.16760E-005	0.00000E+000	4.90000E-001	1.11522E-003	7	...........	-327.66
	865	0.1732	4.79987E-001	1.05218E-005	0.00000E+000	4.80000E-001	1.11522E-003	7	...........	-327.66
	866	0.1734	4.69937E-001	9.42994E-006	0.00000E+000	4.70000E-001	9.90224E-004	7	...........	-327.66
	867	0.1736	4.59937E-001	8.38430E-006	0.00000E+000	4.60000E-001	1.19022E-003	7	...........	-327.66
	868	0.1738	4.50275E-001	7.37691E-006	0.00000E+000	4.50000E-001	1.14022E-003	7	...........	-327.66
	869	0.174	4.39987E-001	6.41603E-006	0.00000E+000	4.40000E-001	1.01522E-003	7	...........	-327.66
	870	0.1742	4.30037E-001	5.48890E-006	0.00000E+000	4.30000E-001	1.11522E-003	7	...........	-327.66
	871	0.1744	4.20050E-001	4.59753E-006	0.00000E+000	4.20000E-001	1.14022E-003	7	...........	-327.66
	872	0.1746	4.10050E-001	3.73241E-006	0.00000E+000	4.10000E-001	1.04022E-003	7	...........	-327.66
	873	0.1748	3.99937E-001	2.89930E-006	0.00000E+000	4.00000E-001	1.21522E-003	7	...........	-327.66
	874	0.175	3.90037E-001	2.09144E-006	0.00000E+000	3.90000E-001	1.09022E-003	7	...........	-327.66
	875	0.1752	3.80012E-001	1.30908E-006	0.00000E+000	3.80000E-001	1.06522E-003	7	...........	-327.66
	876	0.1754	3.70050E-001	5.52229E-007	0.00000E+000	3.70000E-001	1.09022E-003	7	...........	-327.66
	877	0.1756	3.60037E-001	-1.92622E-007	0.00000E+000	3.60000E-001	9.90224E-004	7	...........	-327.66
	878	0.1758	3.49950E-001	-9.05970E-007	0.00000E+000	3.50000E-001	9.65224E-004	7	...........	-327.66
	879	0.176	3.40100E-001	-1.60531E-006	0.00000E+000	3.40000E-001	1.06522E-003	7	...........	-327.66
	880	0.1762	3.30112E-001	-2.28391E-006	0.00000E+000	3.30000E-001	1.06522E-003	7	...........	-327.66
	881	0.1764	3.20062E-001	-2.95450E-006	0.00000E+000	3.20000E-001	1.19022E-003	7	...........	-327.66
	882	0.1766	3.10162E-001	-3.59809E-006	0.00000E+000	3.10000E-001	1.14022E-003	7	...........	-327.66
	883	0.1768	2.99987E-001	-4.23492E-006	0.00000E+000	3.00000E-001	1.06522E-003	7	...........	-327.66
	884	0.177	2.90075E-001	-4.85626E-006	0.00000E+000	2.90000E-001	1.01522E-003	7	...........	-327.66
	885	0.1772	2.80012E-001	-5.46109E-006	0.00000E+000	2.80000E-001	1.14022E-003	7	...........	-327.66
	886	0.1774	2.70150E-001	-6.05192E-006	0.00000E+000	2.70000E-001	1.09022E-003	7	...........	-327.66
	887	0.1776	2.60000E-001	-6.63875E-006	0.00000E+000	2.60000E-001	1.01522E-003	7	...........	-327.66
	888	0.1778	2.50237E-001	-7.20633E-006	0.00000E+000	2.50000E-001	1.19022E-003	7	...........	-327.66
	889	0.178	2.40125E-001	-7.76165E-006	0.00000E+000	2.40000E-001	9.40224E-004	7	...........	-327.66
	890	0.1782	2.30087E-001	-8.31423E-006	0.00000E+000	2.30000E-001	1.16522E-003	7	...........	-327.66
	891	0.1784	2.20037E-001	-8.85280E-006	0.00000E+000	2.20000E-001	1.01522E-003	7	...........	-327.66
	892	0.1786	2.10100E-001	-9.38538E-006	0.00000E+000	2.10000E-001	1.09022E-003	7	...........	-327.66
	893	0.1788	2.00125E-001	-9.90770E-006	0.00000E+000	2.00000E-001	9.65224E-004	7	...........	-327.66
	894	0.179	1.90137E-001	-1.04163E-005	0.00000E+000	1.90000E-001	1.09022E-003	7	...........	-327.66
	895	0.1792	1.80087E-001	-1.09233E-005	0.00000E+000	1.80000E-001	1.11522E-003	7	...........	-327.66
	896	0.1794	1.70162E-001	-1.14167E-005	0.00000E+000	1.70000E-001	1.19022E-003	7	...........	-327.66
	897	0.1796	1.60200E-001	-1.19092E-005	0.00000E+000	1.60000E-001	1.09022E-003	7	...........	-327.66
	898	0.1798	1.50175E-001	-1.23955E-005	0.00000E+000	1.50000E-001	1.24022E-003	7	...........	-327.66
	899	0.18	1.40212E-001	-1.28714E-005	0.00000E+000	1.40000E-001	1.14022E-003	7	...........	-327.66
	900	0.1802	1.30200E-001	-1.33412E-005	0.00000E+000	1.30000E-001	1.09022E-003	7	...........	-327.66
