EXPLAIN
TAG	CV
TITLE	LABEL	CV5000	Test Identifier
DATE	LABEL	5/9/2025	Date
TIME	LABEL	15:18:09	Time
NOTES	NOTES	1	Notes...
	
PSTAT	PSTAT	REF600P-43058	Potentiostat
VINIT	POTEN	0.00000E+000	T	Initial E (V)
VLIMIT1	POTEN	-9.00000E-001	F	Scan Limit 1 (V)
VLIMIT2	POTEN	6.00000E-001	F	Scan Limit 2 (V)
VFINAL	POTEN	0.00000E+000	T	Final E (V)
SCANRATE	QUANT	4.99999E+003	Scan Rate (mV/s)
STEPSIZE	QUANT	1.00000E+001	Step Size (mV)
CYCLES	IQUANT	3	Cycles (#)
IMODE	SELECTOR	1	I/E Range Mode
IRANGE	QUANT	1.00000E-002	Max Current (mA)
AREA	QUANT	1.00000E+000	Sample Area (cm^2)
EQDELAY	QUANT	5.00000E+000	Equil. Time (s)
IRCOMP	SELECTOR	0	IRComp
PFCOR	QUANT	5.00000E+001	PF Corr. (ohm)
SAMPLINGMODE	SELECTOR	2	Sampling Mode
EOC	QUANT	0.1578626	Open Circuit (V)
ELECTRODETYPE	SELECTOR	0	Electrode Type
STRIPPING	TOGGLE	F	Used for Stripping
SEQUENCER	TOGGLE	TRUE	Run as Sequence
PSTATMODEL	IQUANT	7	Pstat Model
PSTATSECTION	LABEL	REF600P-43058	Pstat Section
PSTATSERIALNO	LABEL	43058	Pstat Serial Number
CTRLMODE	IQUANT	1	Control Mode
ELECTROMETER	IQUANT	0	RE=0 or CS=1
IESTAB	IQUANT	2	I/E Stability
CASPEED	IQUANT	4	Control Amp Speed
CONVENTION	IQUANT	1	Current Convention
ICHRANGE	IQUANT	2	Ich Range
ICHRANGEMODE	TOGGLE	F	Ich Auto Range
ICHOFFSETENABLE	TOGGLE	F	Ich Offset Enable
ICHOFFSET	QUANT	0	Ich Offset (V)
ICHFILTER	IQUANT	2	Ich Filter
VCHRANGE	IQUANT	2	Vch Range
VCHRANGEMODE	TOGGLE	F	Vch Auto Range
VCHOFFSETENABLE	TOGGLE	F	Vch Offset Enable
VCHOFFSET	QUANT	0	Vch Offset (V)
VCHFILTER	IQUANT	2	Vch Filter
ACHRANGE	IQUANT	2	Ach Range
ACHOFFSETENABLE	TOGGLE	F	Ach Offset Enable
ACHOFFSET	QUANT	0	Ach Offset (V)
ACHFILTER	IQUANT	1	Ach Filter
IERANGELOWERLIMIT	IQUANT	1	I/E Range Lower Limit
IERANGEMODE	TOGGLE	F	I/E AutoRange
IERANGE	IQUANT	7	I/E Range
POSFEEDENABLE	TOGGLE	F	Positive Feedback IR Comp
POSFEEDRESISTANCE	QUANT	0	Positive Feedback Resistance (ohm)
ACHSELECT	IQUANT	4	Ach Select
SENSECABLEID	IQUANT	7	Sense Cable ID
PWRCABLEID	IQUANT	7	Power Cable ID
DCCALDATE	LABEL	5/8/2025	DC Calibration Date
ACCALDATE	LABEL	5/8/2025	AC Calibration Date
THERMOSELECT	IQUANT	1	Thermo Select
FRAMEWORKVERSION	LABEL	7.10.4	Framework Version
INSTRUMENTVERSION	LABEL	5.01	Instrument Version
COMMVERSION	LABEL	5.10	Communications Version
CPUPLDVERSION	LABEL	6.00	CPU PLD Version
CTRLPLDVERSION	LABEL	3.21	CTRL PLD Version
PSTATPLDVERSION	LABEL	0.00	PSTAT PLD Version
CURVE1	TABLE
	Pt	T	Vf	Im	Vu	Sig	Ach	IERange	Over	Temp
	#	s	V vs. Ref.	A	V	V	V	#	bits	deg C
	0	0.002	1.57882E-001	9.42410E-009	0.00000E+000	1.57850E-001	1.39712E-003	7	...........	-327.66
	1	0.004	1.48736E-001	-6.78566E-007	0.00000E+000	1.47850E-001	1.40747E-003	7	...........	-327.66
	2	0.006	1.38712E-001	-1.03572E-006	0.00000E+000	1.37850E-001	1.42126E-003	7	...........	-327.66
	3	0.008	1.28678E-001	-1.29222E-006	0.00000E+000	1.27850E-001	1.39367E-003	7	...........	-327.66
	4	0.01	1.18715E-001	-1.50171E-006	0.00000E+000	1.17850E-001	1.36953E-003	7	...........	-327.66
	5	0.012	1.08733E-001	-1.68463E-006	0.00000E+000	1.07850E-001	1.49022E-003	7	...........	-327.66
	6	0.014	9.86575E-002	-1.84712E-006	0.00000E+000	9.78500E-002	1.44022E-003	7	...........	-327.66
	7	0.016	8.87316E-002	-1.99690E-006	0.00000E+000	8.78500E-002	1.45574E-003	7	...........	-327.66
	8	0.018	7.86954E-002	-2.13530E-006	0.00000E+000	7.78500E-002	1.48333E-003	7	...........	-327.66
	9	0.02	6.87394E-002	-2.26266E-006	0.00000E+000	6.78500E-002	1.42988E-003	7	...........	-327.66
	10	0.022	5.86851E-002	-2.38311E-006	0.00000E+000	5.78500E-002	1.43678E-003	7	...........	-327.66
	11	0.024	4.87040E-002	-2.49623E-006	0.00000E+000	4.78500E-002	1.38850E-003	7	...........	-327.66
	12	0.026	3.87264E-002	-2.60302E-006	0.00000E+000	3.78500E-002	1.40057E-003	7	...........	-327.66
	13	0.028	2.87359E-002	-2.70427E-006	0.00000E+000	2.78500E-002	1.41264E-003	7	...........	-327.66
	14	0.03	1.87325E-002	-2.80022E-006	0.00000E+000	1.78500E-002	1.42643E-003	7	...........	-327.66
	15	0.032	8.71524E-003	-2.89202E-006	0.00000E+000	7.84999E-003	1.47126E-003	7	...........	-327.66
	16	0.034	-1.31321E-003	-2.97974E-006	0.00000E+000	-2.15001E-003	1.40919E-003	7	...........	-327.66
	17	0.036	-1.12744E-002	-3.06329E-006	0.00000E+000	-1.21500E-002	1.42126E-003	7	...........	-327.66
	18	0.038	-2.13304E-002	-3.14313E-006	0.00000E+000	-2.21500E-002	1.39195E-003	7	...........	-327.66
	19	0.04	-3.13236E-002	-3.22179E-006	0.00000E+000	-3.21500E-002	1.41781E-003	7	...........	-327.66
	20	0.042	-4.12874E-002	-3.29411E-006	0.00000E+000	-4.21500E-002	1.37643E-003	7	...........	-327.66
	21	0.044	-5.12572E-002	-3.36681E-006	0.00000E+000	-5.21500E-002	1.39195E-003	7	...........	-327.66
	22	0.046	-6.12891E-002	-3.43449E-006	0.00000E+000	-6.21500E-002	1.41436E-003	7	...........	-327.66
	23	0.048	-7.12942E-002	-3.50133E-006	0.00000E+000	-7.21500E-002	1.40919E-003	7	...........	-327.66
	24	0.05	-8.13020E-002	-3.56648E-006	0.00000E+000	-8.21500E-002	1.41091E-003	7	...........	-327.66
	25	0.052	-9.12684E-002	-3.62819E-006	0.00000E+000	-9.21500E-002	1.41264E-003	7	...........	-327.66
	26	0.054	-1.01348E-001	-3.69041E-006	0.00000E+000	-1.02150E-001	1.46091E-003	7	...........	-327.66
	27	0.056	-1.11294E-001	-3.74881E-006	0.00000E+000	-1.12150E-001	1.49540E-003	7	...........	-327.66
	28	0.058	-1.21323E-001	-3.80804E-006	0.00000E+000	-1.22150E-001	1.45229E-003	7	...........	-327.66
	29	0.06	-1.31310E-001	-3.86316E-006	0.00000E+000	-1.32150E-001	1.49540E-003	7	...........	-327.66
	30	0.062	-1.41306E-001	-3.91790E-006	0.00000E+000	-1.42150E-001	1.47298E-003	7	...........	-327.66
	31	0.064	-1.51337E-001	-3.97212E-006	0.00000E+000	-1.52150E-001	1.47988E-003	7	...........	-327.66
	32	0.066	-1.61312E-001	-4.02582E-006	0.00000E+000	-1.62150E-001	1.39884E-003	7	...........	-327.66
	33	0.068	-1.71255E-001	-4.07668E-006	0.00000E+000	-1.72150E-001	1.39367E-003	7	...........	-327.66
	34	0.07	-1.81330E-001	-4.12830E-006	0.00000E+000	-1.82150E-001	1.46953E-003	7	...........	-327.66
	35	0.072	-1.91276E-001	-4.17809E-006	0.00000E+000	-1.92150E-001	1.48850E-003	7	...........	-327.66
	36	0.074	-2.01320E-001	-4.22727E-006	0.00000E+000	-2.02150E-001	1.37988E-003	7	...........	-327.66
	37	0.076	-2.11248E-001	-4.27554E-006	0.00000E+000	-2.12150E-001	1.47815E-003	7	...........	-327.66
	38	0.078	-2.21275E-001	-4.32249E-006	0.00000E+000	-2.22150E-001	1.42471E-003	7	...........	-327.66
	39	0.08	-2.31290E-001	-4.36834E-006	0.00000E+000	-2.32150E-001	1.46436E-003	7	...........	-327.66
	40	0.082	-2.41186E-001	-4.41478E-006	0.00000E+000	-2.42150E-001	1.47126E-003	7	...........	-327.66
	41	0.084	-2.51256E-001	-4.45994E-006	0.00000E+000	-2.52150E-001	1.40919E-003	7	...........	-327.66
	42	0.086	-2.61279E-001	-4.50362E-006	0.00000E+000	-2.62150E-001	1.45919E-003	7	...........	-327.66
	43	0.088	-2.71215E-001	-4.54604E-006	0.00000E+000	-2.72150E-001	1.49195E-003	7	...........	-327.66
	44	0.09	-2.81263E-001	-4.58819E-006	0.00000E+000	-2.82150E-001	1.45057E-003	7	...........	-327.66
	45	0.092	-2.91199E-001	-4.62898E-006	0.00000E+000	-2.92150E-001	1.49540E-003	7	...........	-327.66
	46	0.094	-3.01281E-001	-4.66951E-006	0.00000E+000	-3.02150E-001	1.46264E-003	7	...........	-327.66
	47	0.096	-3.11304E-001	-4.70693E-006	0.00000E+000	-3.12150E-001	1.40229E-003	7	...........	-327.66
	48	0.098	-3.21263E-001	-4.74424E-006	0.00000E+000	-3.22150E-001	1.42988E-003	7	...........	-327.66
	49	0.1	-3.31264E-001	-4.77914E-006	0.00000E+000	-3.32150E-001	1.40919E-003	7	...........	-327.66
	50	0.102	-3.41280E-001	-4.81368E-006	0.00000E+000	-3.42150E-001	1.44367E-003	7	...........	-327.66
	51	0.104	-3.51261E-001	-4.84743E-006	0.00000E+000	-3.52150E-001	1.41781E-003	7	...........	-327.66
	52	0.106	-3.61277E-001	-4.87798E-006	0.00000E+000	-3.62150E-001	1.40574E-003	7	...........	-327.66
	53	0.108	-3.71233E-001	-4.90763E-006	0.00000E+000	-3.72150E-001	1.39884E-003	7	...........	-327.66
	54	0.11	-3.81303E-001	-4.93523E-006	0.00000E+000	-3.82150E-001	1.41091E-003	7	...........	-327.66
	55	0.112	-3.91251E-001	-4.96182E-006	0.00000E+000	-3.92150E-001	1.41091E-003	7	...........	-327.66
	56	0.114	-4.01268E-001	-4.98648E-006	0.00000E+000	-4.02150E-001	1.40402E-003	7	...........	-327.66
	57	0.116	-4.11236E-001	-5.00816E-006	0.00000E+000	-4.12150E-001	1.40229E-003	7	...........	-327.66
	58	0.118	-4.21220E-001	-5.02945E-006	0.00000E+000	-4.22150E-001	1.44022E-003	7	...........	-327.66
	59	0.12	-4.31276E-001	-5.04835E-006	0.00000E+000	-4.32150E-001	1.47988E-003	7	...........	-327.66
	60	0.122	-4.41277E-001	-5.06599E-006	0.00000E+000	-4.42150E-001	1.40574E-003	7	...........	-327.66
	61	0.124	-4.51192E-001	-5.08165E-006	0.00000E+000	-4.52150E-001	1.47298E-003	7	...........	-327.66
	62	0.126	-4.61256E-001	-5.09515E-006	0.00000E+000	-4.62150E-001	1.41609E-003	7	...........	-327.66
	63	0.128	-4.71197E-001	-5.10683E-006	0.00000E+000	-4.72150E-001	1.47815E-003	7	...........	-327.66
	64	0.13	-4.81247E-001	-5.11879E-006	0.00000E+000	-4.82150E-001	1.46953E-003	7	...........	-327.66
	65	0.132	-4.91235E-001	-5.12757E-006	0.00000E+000	-4.92150E-001	1.45402E-003	7	...........	-327.66
	66	0.134	-5.01224E-001	-5.13509E-006	0.00000E+000	-5.02150E-001	1.43678E-003	7	...........	-327.66
	67	0.136	-5.11255E-001	-5.14238E-006	0.00000E+000	-5.12150E-001	1.40402E-003	7	...........	-327.66
	68	0.138	-5.21271E-001	-5.14723E-006	0.00000E+000	-5.22150E-001	1.45919E-003	7	...........	-327.66
	69	0.14	-5.31236E-001	-5.15168E-006	0.00000E+000	-5.32150E-001	1.41953E-003	7	...........	-327.66
	70	0.142	-5.41260E-001	-5.15187E-006	0.00000E+000	-5.42150E-001	1.46609E-003	7	...........	-327.66
	71	0.144	-5.51216E-001	-5.15190E-006	0.00000E+000	-5.52150E-001	1.40402E-003	7	...........	-327.66
	72	0.146	-5.61284E-001	-5.14740E-006	0.00000E+000	-5.62150E-001	1.47815E-003	7	...........	-327.66
	73	0.148	-5.71249E-001	-5.14085E-006	0.00000E+000	-5.72150E-001	1.46436E-003	7	...........	-327.66
	74	0.15	-5.81229E-001	-5.13085E-006	0.00000E+000	-5.82150E-001	1.40919E-003	7	...........	-327.66
	75	0.152	-5.91254E-001	-5.11515E-006	0.00000E+000	-5.92150E-001	1.44712E-003	7	...........	-327.66
	76	0.154	-6.01246E-001	-5.09362E-006	0.00000E+000	-6.02150E-001	1.39712E-003	7	...........	-327.66
	77	0.156	-6.11234E-001	-5.06646E-006	0.00000E+000	-6.12150E-001	1.43678E-003	7	...........	-327.66
	78	0.158	-6.21206E-001	-5.03007E-006	0.00000E+000	-6.22150E-001	1.44540E-003	7	...........	-327.66
	79	0.16	-6.31223E-001	-4.98370E-006	0.00000E+000	-6.32150E-001	1.41953E-003	7	...........	-327.66
	80	0.162	-6.41239E-001	-4.92535E-006	0.00000E+000	-6.42150E-001	1.42643E-003	7	...........	-327.66
	81	0.164	-6.51160E-001	-4.85301E-006	0.00000E+000	-6.52150E-001	1.46609E-003	7	...........	-327.66
	82	0.166	-6.61231E-001	-4.76752E-006	0.00000E+000	-6.62150E-001	1.38850E-003	7	...........	-327.66
	83	0.168	-6.71222E-001	-4.66580E-006	0.00000E+000	-6.72150E-001	1.41436E-003	7	...........	-327.66
	84	0.17	-6.81202E-001	-4.54594E-006	0.00000E+000	-6.82150E-001	1.39712E-003	7	...........	-327.66
	85	0.172	-6.91194E-001	-4.40688E-006	0.00000E+000	-6.92150E-001	1.40574E-003	7	...........	-327.66
	86	0.174	-7.01153E-001	-4.25254E-006	0.00000E+000	-7.02150E-001	1.46091E-003	7	...........	-327.66
	87	0.176	-7.11236E-001	-4.08075E-006	0.00000E+000	-7.12150E-001	1.41091E-003	7	...........	-327.66
	88	0.178	-7.21262E-001	-3.89254E-006	0.00000E+000	-7.22150E-001	1.41953E-003	7	...........	-327.66
	89	0.18	-7.31194E-001	-3.69210E-006	0.00000E+000	-7.32150E-001	1.47298E-003	7	...........	-327.66
	90	0.182	-7.41282E-001	-3.48160E-006	0.00000E+000	-7.42150E-001	1.48160E-003	7	...........	-327.66
	91	0.184	-7.51257E-001	-3.26156E-006	0.00000E+000	-7.52150E-001	1.48505E-003	7	...........	-327.66
	92	0.186	-7.61258E-001	-3.03728E-006	0.00000E+000	-7.62150E-001	1.39367E-003	7	...........	-327.66
	93	0.188	-7.71240E-001	-2.81508E-006	0.00000E+000	-7.72150E-001	1.38850E-003	7	...........	-327.66
	94	0.19	-7.81208E-001	-2.60193E-006	0.00000E+000	-7.82150E-001	1.44884E-003	7	...........	-327.66
	95	0.192	-7.91241E-001	-2.39594E-006	0.00000E+000	-7.92150E-001	1.46609E-003	7	...........	-327.66
	96	0.194	-8.01248E-001	-2.19953E-006	0.00000E+000	-8.02150E-001	1.45057E-003	7	...........	-327.66
	97	0.196	-8.11216E-001	-2.02166E-006	0.00000E+000	-8.12150E-001	1.44022E-003	7	...........	-327.66
	98	0.198	-8.21276E-001	-1.86276E-006	0.00000E+000	-8.22150E-001	1.43850E-003	7	...........	-327.66
	99	0.2	-8.31243E-001	-1.72536E-006	0.00000E+000	-8.32150E-001	1.44367E-003	7	...........	-327.66
	100	0.202	-8.41246E-001	-1.59902E-006	0.00000E+000	-8.42150E-001	1.45574E-003	7	...........	-327.66
	101	0.204	-8.51232E-001	-1.48661E-006	0.00000E+000	-8.52150E-001	1.43505E-003	7	...........	-327.66
	102	0.206	-8.61219E-001	-1.38773E-006	0.00000E+000	-8.62150E-001	1.40229E-003	7	...........	-327.66
	103	0.208	-8.71263E-001	-1.30134E-006	0.00000E+000	-8.72150E-001	1.39884E-003	7	...........	-327.66
	104	0.21	-8.81236E-001	-1.22159E-006	0.00000E+000	-8.82150E-001	1.40574E-003	7	...........	-327.66
	105	0.212	-8.91243E-001	-1.15354E-006	0.00000E+000	-8.92150E-001	1.38850E-003	7	...........	-327.66
	106	0.214	-9.01244E-001	-1.09497E-006	0.00000E+000	-9.02150E-001	1.45057E-003	7	...........	-327.66
	107	0.216	-8.92798E-001	-9.63398E-007	0.00000E+000	-8.92150E-001	1.39540E-003	7	...........	-327.66
	108	0.218	-8.82701E-001	-8.69316E-007	0.00000E+000	-8.82150E-001	1.38505E-003	7	...........	-327.66
	109	0.22	-8.72836E-001	-7.99997E-007	0.00000E+000	-8.72150E-001	1.44195E-003	7	...........	-327.66
	110	0.222	-8.62844E-001	-7.38661E-007	0.00000E+000	-8.62150E-001	1.47988E-003	7	...........	-327.66
	111	0.224	-8.52810E-001	-6.88447E-007	0.00000E+000	-8.52150E-001	1.42815E-003	7	...........	-327.66
	112	0.226	-8.42841E-001	-6.41078E-007	0.00000E+000	-8.42150E-001	1.39712E-003	7	...........	-327.66
	113	0.228	-8.32783E-001	-5.95245E-007	0.00000E+000	-8.32150E-001	1.44712E-003	7	...........	-327.66
	114	0.23	-8.22781E-001	-5.53256E-007	0.00000E+000	-8.22150E-001	1.46436E-003	7	...........	-327.66
	115	0.232	-8.12771E-001	-5.11509E-007	0.00000E+000	-8.12150E-001	1.42988E-003	7	...........	-327.66
	116	0.234	-8.02817E-001	-4.72245E-007	0.00000E+000	-8.02150E-001	1.39367E-003	7	...........	-327.66
	117	0.236	-7.92814E-001	-4.33309E-007	0.00000E+000	-7.92150E-001	1.41264E-003	7	...........	-327.66
	118	0.238	-7.82773E-001	-3.91389E-007	0.00000E+000	-7.82150E-001	1.40057E-003	7	...........	-327.66
	119	0.24	-7.72767E-001	-3.46728E-007	0.00000E+000	-7.72150E-001	1.46781E-003	7	...........	-327.66
	120	0.242	-7.62810E-001	-3.02256E-007	0.00000E+000	-7.62150E-001	1.46781E-003	7	...........	-327.66
	121	0.244	-7.52842E-001	-2.51749E-007	0.00000E+000	-7.52150E-001	1.47815E-003	7	...........	-327.66
	122	0.246	-7.42830E-001	-1.96535E-007	0.00000E+000	-7.42150E-001	1.40402E-003	7	...........	-327.66
	123	0.248	-7.32781E-001	-1.37372E-007	0.00000E+000	-7.32150E-001	1.41953E-003	7	...........	-327.66
	124	0.25	-7.22846E-001	-7.16042E-008	0.00000E+000	-7.22150E-001	1.44022E-003	7	...........	-327.66
	125	0.252	-7.12875E-001	1.87135E-009	0.00000E+000	-7.12150E-001	1.44195E-003	7	...........	-327.66
	126	0.254	-7.02813E-001	8.37963E-008	0.00000E+000	-7.02150E-001	1.38678E-003	7	...........	-327.66
	127	0.256	-6.92825E-001	1.74412E-007	0.00000E+000	-6.92150E-001	1.45919E-003	7	...........	-327.66
	128	0.258	-6.82854E-001	2.76685E-007	0.00000E+000	-6.82150E-001	1.43160E-003	7	...........	-327.66
	129	0.26	-6.72823E-001	3.90442E-007	0.00000E+000	-6.72150E-001	1.40057E-003	7	...........	-327.66
	130	0.262	-6.62850E-001	5.16579E-007	0.00000E+000	-6.62150E-001	1.39022E-003	7	...........	-327.66
	131	0.264	-6.52805E-001	6.59030E-007	0.00000E+000	-6.52150E-001	1.42988E-003	7	...........	-327.66
	132	0.266	-6.42861E-001	8.14275E-007	0.00000E+000	-6.42150E-001	1.44367E-003	7	...........	-327.66
	133	0.268	-6.32849E-001	9.86988E-007	0.00000E+000	-6.32150E-001	1.43160E-003	7	...........	-327.66
	134	0.27	-6.22817E-001	1.17745E-006	0.00000E+000	-6.22150E-001	1.47126E-003	7	...........	-327.66
	135	0.272	-6.12829E-001	1.38680E-006	0.00000E+000	-6.12150E-001	1.50919E-003	7	...........	-327.66
	136	0.274	-6.02863E-001	1.61326E-006	0.00000E+000	-6.02150E-001	1.40229E-003	7	...........	-327.66
	137	0.276	-5.92861E-001	1.86280E-006	0.00000E+000	-5.92150E-001	1.45574E-003	7	...........	-327.66
	138	0.278	-5.82881E-001	2.12923E-006	0.00000E+000	-5.82150E-001	1.50747E-003	7	...........	-327.66
	139	0.28	-5.72835E-001	2.41636E-006	0.00000E+000	-5.72150E-001	1.52298E-003	7	...........	-327.66
	140	0.282	-5.62902E-001	2.72379E-006	0.00000E+000	-5.62150E-001	1.41953E-003	7	...........	-327.66
	141	0.284	-5.52856E-001	3.04734E-006	0.00000E+000	-5.52150E-001	1.43850E-003	7	...........	-327.66
	142	0.286	-5.42890E-001	3.37726E-006	0.00000E+000	-5.42150E-001	1.45747E-003	7	...........	-327.66
	143	0.288	-5.32870E-001	3.71286E-006	0.00000E+000	-5.32150E-001	1.39540E-003	7	...........	-327.66
	144	0.29	-5.22897E-001	4.04589E-006	0.00000E+000	-5.22150E-001	1.41091E-003	7	...........	-327.66
	145	0.292	-5.12911E-001	4.36393E-006	0.00000E+000	-5.12150E-001	1.44022E-003	7	...........	-327.66
	146	0.294	-5.02869E-001	4.64969E-006	0.00000E+000	-5.02150E-001	1.45574E-003	7	...........	-327.66
	147	0.296	-4.92858E-001	4.89269E-006	0.00000E+000	-4.92150E-001	1.43333E-003	7	...........	-327.66
	148	0.298	-4.82908E-001	5.08717E-006	0.00000E+000	-4.82150E-001	1.40747E-003	7	...........	-327.66
	149	0.3	-4.72830E-001	5.22324E-006	0.00000E+000	-4.72150E-001	1.38333E-003	7	...........	-327.66
	150	0.302	-4.62899E-001	5.30009E-006	0.00000E+000	-4.62150E-001	1.36264E-003	7	...........	-327.66
	151	0.304	-4.52852E-001	5.32756E-006	0.00000E+000	-4.52150E-001	1.46436E-003	7	...........	-327.66
	152	0.306	-4.42917E-001	5.31232E-006	0.00000E+000	-4.42150E-001	1.47126E-003	7	...........	-327.66
	153	0.308	-4.32888E-001	5.26462E-006	0.00000E+000	-4.32150E-001	1.44540E-003	7	...........	-327.66
	154	0.31	-4.22865E-001	5.19746E-006	0.00000E+000	-4.22150E-001	1.48333E-003	7	...........	-327.66
	155	0.312	-4.12840E-001	5.11814E-006	0.00000E+000	-4.12150E-001	1.39022E-003	7	...........	-327.66
	156	0.314	-4.02940E-001	5.03533E-006	0.00000E+000	-4.02150E-001	1.46609E-003	7	...........	-327.66
	157	0.316	-3.92938E-001	4.94996E-006	0.00000E+000	-3.92150E-001	1.44884E-003	7	...........	-327.66
	158	0.318	-3.82930E-001	4.87148E-006	0.00000E+000	-3.82150E-001	1.37815E-003	7	...........	-327.66
	159	0.32	-3.72865E-001	4.80089E-006	0.00000E+000	-3.72150E-001	1.45747E-003	7	...........	-327.66
	160	0.322	-3.62903E-001	4.73700E-006	0.00000E+000	-3.62150E-001	1.44884E-003	7	...........	-327.66
	161	0.324	-3.52918E-001	4.68077E-006	0.00000E+000	-3.52150E-001	1.42471E-003	7	...........	-327.66
	162	0.326	-3.42933E-001	4.63257E-006	0.00000E+000	-3.42150E-001	1.41781E-003	7	...........	-327.66
	163	0.328	-3.32884E-001	4.59108E-006	0.00000E+000	-3.32150E-001	1.45747E-003	7	...........	-327.66
	164	0.33	-3.22922E-001	4.55525E-006	0.00000E+000	-3.22150E-001	1.42126E-003	7	...........	-327.66
	165	0.332	-3.12920E-001	4.52592E-006	0.00000E+000	-3.12150E-001	1.40574E-003	7	...........	-327.66
	166	0.334	-3.02903E-001	4.50054E-006	0.00000E+000	-3.02150E-001	1.47298E-003	7	...........	-327.66
	167	0.336	-2.92832E-001	4.48083E-006	0.00000E+000	-2.92150E-001	1.49195E-003	7	...........	-327.66
	168	0.338	-2.82899E-001	4.46296E-006	0.00000E+000	-2.82150E-001	1.37643E-003	7	...........	-327.66
	169	0.34	-2.72901E-001	4.44877E-006	0.00000E+000	-2.72150E-001	1.44540E-003	7	...........	-327.66
	170	0.342	-2.62908E-001	4.43625E-006	0.00000E+000	-2.62150E-001	1.50057E-003	7	...........	-327.66
	171	0.344	-2.52874E-001	4.42653E-006	0.00000E+000	-2.52150E-001	1.49367E-003	7	...........	-327.66
	172	0.346	-2.42862E-001	4.41573E-006	0.00000E+000	-2.42150E-001	1.45919E-003	7	...........	-327.66
	173	0.348	-2.32911E-001	4.40551E-006	0.00000E+000	-2.32150E-001	1.42298E-003	7	...........	-327.66
	174	0.35	-2.22909E-001	4.39556E-006	0.00000E+000	-2.22150E-001	1.47298E-003	7	...........	-327.66
	175	0.352	-2.12882E-001	4.38455E-006	0.00000E+000	-2.12150E-001	1.40747E-003	7	...........	-327.66
	176	0.354	-2.02974E-001	4.37521E-006	0.00000E+000	-2.02150E-001	1.46264E-003	7	...........	-327.66
	177	0.356	-1.92952E-001	4.36681E-006	0.00000E+000	-1.92150E-001	1.44367E-003	7	...........	-327.66
	178	0.358	-1.82941E-001	4.35796E-006	0.00000E+000	-1.82150E-001	1.41091E-003	7	...........	-327.66
	179	0.36	-1.72922E-001	4.35050E-006	0.00000E+000	-1.72150E-001	1.43678E-003	7	...........	-327.66
	180	0.362	-1.62967E-001	4.34457E-006	0.00000E+000	-1.62150E-001	1.50057E-003	7	...........	-327.66
	181	0.364	-1.52943E-001	4.33763E-006	0.00000E+000	-1.52150E-001	1.47126E-003	7	...........	-327.66
	182	0.366	-1.42930E-001	4.33163E-006	0.00000E+000	-1.42150E-001	1.47471E-003	7	...........	-327.66
	183	0.368	-1.32908E-001	4.32693E-006	0.00000E+000	-1.32150E-001	1.43160E-003	7	...........	-327.66
	184	0.37	-1.22974E-001	4.32068E-006	0.00000E+000	-1.22150E-001	1.40574E-003	7	...........	-327.66
	185	0.372	-1.12925E-001	4.31751E-006	0.00000E+000	-1.12150E-001	1.43850E-003	7	...........	-327.66
	186	0.374	-1.02959E-001	4.31172E-006	0.00000E+000	-1.02150E-001	1.48505E-003	7	...........	-327.66
	187	0.376	-9.28865E-002	4.30815E-006	0.00000E+000	-9.21500E-002	1.41091E-003	7	...........	-327.66
	188	0.378	-8.29572E-002	4.30303E-006	0.00000E+000	-8.21500E-002	1.47988E-003	7	...........	-327.66
	189	0.38	-7.29417E-002	4.29840E-006	0.00000E+000	-7.21500E-002	1.44367E-003	7	...........	-327.66
	190	0.382	-6.29046E-002	4.29358E-006	0.00000E+000	-6.21500E-002	1.42126E-003	7	...........	-327.66
	191	0.384	-5.28942E-002	4.28849E-006	0.00000E+000	-5.21500E-002	1.40919E-003	7	...........	-327.66
	192	0.386	-4.29391E-002	4.28313E-006	0.00000E+000	-4.21500E-002	1.39712E-003	7	...........	-327.66
	193	0.388	-3.29468E-002	4.27768E-006	0.00000E+000	-3.21500E-002	1.37471E-003	7	...........	-327.66
	194	0.39	-2.29529E-002	4.27111E-006	0.00000E+000	-2.21500E-002	1.42643E-003	7	...........	-327.66
	195	0.392	-1.28710E-002	4.26554E-006	0.00000E+000	-1.21500E-002	1.45057E-003	7	...........	-327.66
	196	0.394	-2.96149E-003	4.25776E-006	0.00000E+000	-2.15001E-003	1.40057E-003	7	...........	-327.66
	197	0.396	7.06696E-003	4.25059E-006	0.00000E+000	7.84999E-003	1.46781E-003	7	...........	-327.66
	198	0.398	1.71299E-002	4.24440E-006	0.00000E+000	1.78500E-002	1.45402E-003	7	...........	-327.66
	199	0.4	2.71342E-002	4.23503E-006	0.00000E+000	2.78500E-002	1.42643E-003	7	...........	-327.66
	200	0.402	3.70868E-002	4.22641E-006	0.00000E+000	3.78500E-002	1.43678E-003	7	...........	-327.66
	201	0.404	4.70920E-002	4.21827E-006	0.00000E+000	4.78500E-002	1.46091E-003	7	...........	-327.66
	202	0.406	5.70670E-002	4.20777E-006	0.00000E+000	5.78500E-002	1.41091E-003	7	...........	-327.66
	203	0.408	6.71178E-002	4.19810E-006	0.00000E+000	6.78500E-002	1.46436E-003	7	...........	-327.66
	204	0.41	7.70652E-002	4.18803E-006	0.00000E+000	7.78500E-002	1.44367E-003	7	...........	-327.66
	205	0.412	8.70790E-002	4.17858E-006	0.00000E+000	8.78500E-002	1.40747E-003	7	...........	-327.66
	206	0.414	9.70937E-002	4.16718E-006	0.00000E+000	9.78500E-002	1.43505E-003	7	...........	-327.66
	207	0.416	1.07115E-001	4.15466E-006	0.00000E+000	1.07850E-001	1.39540E-003	7	...........	-327.66
	208	0.418	1.17079E-001	4.14399E-006	0.00000E+000	1.17850E-001	1.44022E-003	7	...........	-327.66
	209	0.42	1.27083E-001	4.13205E-006	0.00000E+000	1.27850E-001	1.44367E-003	7	...........	-327.66
	210	0.422	1.37097E-001	4.11957E-006	0.00000E+000	1.37850E-001	1.46781E-003	7	...........	-327.66
	211	0.424	1.47133E-001	4.10736E-006	0.00000E+000	1.47850E-001	1.48505E-003	7	...........	-327.66
	212	0.426	1.57060E-001	4.09519E-006	0.00000E+000	1.57850E-001	1.44884E-003	7	...........	-327.66
	213	0.428	1.67089E-001	4.08394E-006	0.00000E+000	1.67850E-001	1.46609E-003	7	...........	-327.66
	214	0.43	1.77100E-001	4.07239E-006	0.00000E+000	1.77850E-001	1.40747E-003	7	...........	-327.66
	215	0.432	1.87114E-001	4.05999E-006	0.00000E+000	1.87850E-001	1.38505E-003	7	...........	-327.66
	216	0.434	1.97083E-001	4.04684E-006	0.00000E+000	1.97850E-001	1.40402E-003	7	...........	-327.66
	217	0.436	2.07049E-001	4.03637E-006	0.00000E+000	2.07850E-001	1.42298E-003	7	...........	-327.66
	218	0.438	2.17048E-001	4.02426E-006	0.00000E+000	2.17850E-001	1.42471E-003	7	...........	-327.66
	219	0.44	2.27095E-001	4.01302E-006	0.00000E+000	2.27850E-001	1.47815E-003	7	...........	-327.66
	220	0.442	2.37046E-001	4.00128E-006	0.00000E+000	2.37850E-001	1.48160E-003	7	...........	-327.66
	221	0.444	2.47074E-001	3.99012E-006	0.00000E+000	2.47850E-001	1.46609E-003	7	...........	-327.66
	222	0.446	2.57059E-001	3.98050E-006	0.00000E+000	2.57850E-001	1.42988E-003	7	...........	-327.66
	223	0.448	2.67077E-001	3.96957E-006	0.00000E+000	2.67850E-001	1.41781E-003	7	...........	-327.66
	224	0.45	2.77030E-001	3.95862E-006	0.00000E+000	2.77850E-001	1.44884E-003	7	...........	-327.66
	225	0.452	2.87023E-001	3.95000E-006	0.00000E+000	2.87850E-001	1.42126E-003	7	...........	-327.66
	226	0.454	2.97027E-001	3.94218E-006	0.00000E+000	2.97850E-001	1.39367E-003	7	...........	-327.66
	227	0.456	3.07076E-001	3.93273E-006	0.00000E+000	3.07850E-001	1.44884E-003	7	...........	-327.66
	228	0.458	3.17040E-001	3.92558E-006	0.00000E+000	3.17850E-001	1.41436E-003	7	...........	-327.66
	229	0.46	3.27088E-001	3.91975E-006	0.00000E+000	3.27850E-001	1.42643E-003	7	...........	-327.66
	230	0.462	3.37051E-001	3.91363E-006	0.00000E+000	3.37850E-001	1.45574E-003	7	...........	-327.66
	231	0.464	3.47111E-001	3.90871E-006	0.00000E+000	3.47850E-001	1.42298E-003	7	...........	-327.66
	232	0.466	3.57032E-001	3.90478E-006	0.00000E+000	3.57850E-001	1.44022E-003	7	...........	-327.66
	233	0.468	3.67054E-001	3.90280E-006	0.00000E+000	3.67850E-001	1.45747E-003	7	...........	-327.66
	234	0.47	3.77047E-001	3.89956E-006	0.00000E+000	3.77850E-001	1.41436E-003	7	...........	-327.66
	235	0.472	3.87085E-001	3.89895E-006	0.00000E+000	3.87850E-001	1.49367E-003	7	...........	-327.66
	236	0.474	3.97068E-001	3.89902E-006	0.00000E+000	3.97850E-001	1.46781E-003	7	...........	-327.66
	237	0.476	4.07067E-001	3.90006E-006	0.00000E+000	4.07850E-001	1.49712E-003	7	...........	-327.66
	238	0.478	4.17002E-001	3.90328E-006	0.00000E+000	4.17850E-001	1.45574E-003	7	...........	-327.66
	239	0.48	4.27075E-001	3.90604E-006	0.00000E+000	4.27850E-001	1.44022E-003	7	...........	-327.66
	240	0.482	4.37006E-001	3.91035E-006	0.00000E+000	4.37850E-001	1.36953E-003	7	...........	-327.66
	241	0.484	4.47031E-001	3.91634E-006	0.00000E+000	4.47850E-001	1.37298E-003	7	...........	-327.66
	242	0.486	4.57019E-001	3.92322E-006	0.00000E+000	4.57850E-001	1.50229E-003	7	...........	-327.66
	243	0.488	4.67044E-001	3.93018E-006	0.00000E+000	4.67850E-001	1.42298E-003	7	...........	-327.66
	244	0.49	4.77010E-001	3.93939E-006	0.00000E+000	4.77850E-001	1.38678E-003	7	...........	-327.66
	245	0.492	4.87000E-001	3.95015E-006	0.00000E+000	4.87850E-001	1.42126E-003	7	...........	-327.66
	246	0.494	4.97029E-001	3.96126E-006	0.00000E+000	4.97850E-001	1.41781E-003	7	...........	-327.66
	247	0.496	5.07084E-001	3.97348E-006	0.00000E+000	5.07850E-001	1.40229E-003	7	...........	-327.66
	248	0.498	5.16992E-001	3.98636E-006	0.00000E+000	5.17850E-001	1.43505E-003	7	...........	-327.66
	249	0.5	5.27051E-001	4.00050E-006	0.00000E+000	5.27850E-001	1.42643E-003	7	...........	-327.66
	250	0.502	5.37002E-001	4.01528E-006	0.00000E+000	5.37850E-001	1.44367E-003	7	...........	-327.66
	251	0.504	5.47068E-001	4.03249E-006	0.00000E+000	5.47850E-001	1.42298E-003	7	...........	-327.66
	252	0.506	5.57024E-001	4.05056E-006	0.00000E+000	5.57850E-001	1.42471E-003	7	...........	-327.66
	253	0.508	5.67001E-001	4.07027E-006	0.00000E+000	5.67850E-001	1.44022E-003	7	...........	-327.66
	254	0.51	5.77019E-001	4.09270E-006	0.00000E+000	5.77850E-001	1.44884E-003	7	...........	-327.66
	255	0.512	5.87057E-001	4.11514E-006	0.00000E+000	5.87850E-001	1.41609E-003	7	...........	-327.66
	256	0.514	5.97001E-001	4.13949E-006	0.00000E+000	5.97850E-001	1.42643E-003	7	...........	-327.66
CURVE2	TABLE
	Pt	T	Vf	Im	Vu	Sig	Ach	IERange	Over	Temp
	#	s	V vs. Ref.	A	V	V	V	#	bits	deg C
	257	0.516	5.90577E-001	2.94136E-006	0.00000E+000	5.90000E-001	1.39884E-003	7	...........	-327.66
	258	0.518	5.80774E-001	2.15058E-006	0.00000E+000	5.80000E-001	1.47988E-003	7	...........	-327.66
	259	0.52	5.70767E-001	1.60347E-006	0.00000E+000	5.70000E-001	1.45057E-003	7	...........	-327.66
	260	0.522	5.60755E-001	1.16413E-006	0.00000E+000	5.60000E-001	1.41436E-003	7	...........	-327.66
	261	0.524	5.50786E-001	7.88254E-007	0.00000E+000	5.50000E-001	1.45229E-003	7	...........	-327.66
	262	0.526	5.40764E-001	4.61675E-007	0.00000E+000	5.40000E-001	1.46091E-003	7	...........	-327.66
	263	0.528	5.30785E-001	1.69411E-007	0.00000E+000	5.30000E-001	1.43333E-003	7	...........	-327.66
	264	0.53	5.20761E-001	-9.54005E-008	0.00000E+000	5.20000E-001	1.44022E-003	7	...........	-327.66
	265	0.532	5.10770E-001	-3.35244E-007	0.00000E+000	5.10000E-001	1.45229E-003	7	...........	-327.66
	266	0.534	5.00837E-001	-5.54636E-007	0.00000E+000	5.00000E-001	1.47815E-003	7	...........	-327.66
	267	0.536	4.90772E-001	-7.57508E-007	0.00000E+000	4.90000E-001	1.43505E-003	7	...........	-327.66
	268	0.538	4.80783E-001	-9.44689E-007	0.00000E+000	4.80000E-001	1.39022E-003	7	...........	-327.66
	269	0.54	4.70802E-001	-1.11751E-006	0.00000E+000	4.70000E-001	1.37988E-003	7	...........	-327.66
	270	0.542	4.60798E-001	-1.27906E-006	0.00000E+000	4.60000E-001	1.41609E-003	7	...........	-327.66
	271	0.544	4.50816E-001	-1.42822E-006	0.00000E+000	4.50000E-001	1.46091E-003	7	...........	-327.66
	272	0.546	4.40768E-001	-1.56922E-006	0.00000E+000	4.40000E-001	1.43333E-003	7	...........	-327.66
	273	0.548	4.30780E-001	-1.69979E-006	0.00000E+000	4.30000E-001	1.43505E-003	7	...........	-327.66
	274	0.55	4.20811E-001	-1.82407E-006	0.00000E+000	4.20000E-001	1.40574E-003	7	...........	-327.66
	275	0.552	4.10772E-001	-1.93931E-006	0.00000E+000	4.10000E-001	1.39022E-003	7	...........	-327.66
	276	0.554	4.00795E-001	-2.04920E-006	0.00000E+000	4.00000E-001	1.38850E-003	7	...........	-327.66
	277	0.556	3.90788E-001	-2.15304E-006	0.00000E+000	3.90000E-001	1.43678E-003	7	...........	-327.66
	278	0.558	3.80807E-001	-2.24940E-006	0.00000E+000	3.80000E-001	1.49712E-003	7	...........	-327.66
	279	0.56	3.70820E-001	-2.34214E-006	0.00000E+000	3.70000E-001	1.45919E-003	7	...........	-327.66
	280	0.562	3.60789E-001	-2.43003E-006	0.00000E+000	3.60000E-001	1.42126E-003	7	...........	-327.66
	281	0.564	3.50822E-001	-2.51409E-006	0.00000E+000	3.50000E-001	1.45574E-003	7	...........	-327.66
	282	0.566	3.40811E-001	-2.59303E-006	0.00000E+000	3.40000E-001	1.45747E-003	7	...........	-327.66
	283	0.568	3.30832E-001	-2.66899E-006	0.00000E+000	3.30000E-001	1.46609E-003	7	...........	-327.66
	284	0.57	3.20810E-001	-2.74142E-006	0.00000E+000	3.20000E-001	1.37126E-003	7	...........	-327.66
	285	0.572	3.10799E-001	-2.81148E-006	0.00000E+000	3.10000E-001	1.49367E-003	7	...........	-327.66
	286	0.574	3.00795E-001	-2.87838E-006	0.00000E+000	3.00000E-001	1.39540E-003	7	...........	-327.66
	287	0.576	2.90801E-001	-2.94070E-006	0.00000E+000	2.90000E-001	1.41781E-003	7	...........	-327.66
	288	0.578	2.80775E-001	-3.00268E-006	0.00000E+000	2.80000E-001	1.40229E-003	7	...........	-327.66
	289	0.58	2.70845E-001	-3.06172E-006	0.00000E+000	2.70000E-001	1.45229E-003	7	...........	-327.66
	290	0.582	2.60812E-001	-3.11997E-006	0.00000E+000	2.60000E-001	1.46781E-003	7	...........	-327.66
	291	0.584	2.50833E-001	-3.17399E-006	0.00000E+000	2.50000E-001	1.45229E-003	7	...........	-327.66
	292	0.586	2.40819E-001	-3.22845E-006	0.00000E+000	2.40000E-001	1.39195E-003	7	...........	-327.66
	293	0.588	2.30801E-001	-3.28130E-006	0.00000E+000	2.30000E-001	1.46781E-003	7	...........	-327.66
	294	0.59	2.20818E-001	-3.33186E-006	0.00000E+000	2.20000E-001	1.46781E-003	7	...........	-327.66
	295	0.592	2.10774E-001	-3.38124E-006	0.00000E+000	2.10000E-001	1.42471E-003	7	...........	-327.66
	296	0.594	2.00814E-001	-3.42815E-006	0.00000E+000	2.00000E-001	1.46953E-003	7	...........	-327.66
	297	0.596	1.90882E-001	-3.47398E-006	0.00000E+000	1.90000E-001	1.45574E-003	7	...........	-327.66
	298	0.598	1.80823E-001	-3.52049E-006	0.00000E+000	1.80000E-001	1.39540E-003	7	...........	-327.66
	299	0.6	1.70883E-001	-3.56470E-006	0.00000E+000	1.70000E-001	1.42988E-003	7	...........	-327.66
	300	0.602	1.60826E-001	-3.60753E-006	0.00000E+000	1.60000E-001	1.44195E-003	7	...........	-327.66
	301	0.604	1.50849E-001	-3.65021E-006	0.00000E+000	1.50000E-001	1.44022E-003	7	...........	-327.66
	302	0.606	1.40890E-001	-3.69155E-006	0.00000E+000	1.40000E-001	1.44712E-003	7	...........	-327.66
	303	0.608	1.30862E-001	-3.73100E-006	0.00000E+000	1.30000E-001	1.48160E-003	7	...........	-327.66
	304	0.61	1.20805E-001	-3.77092E-006	0.00000E+000	1.20000E-001	1.42988E-003	7	...........	-327.66
	305	0.612	1.10832E-001	-3.80818E-006	0.00000E+000	1.10000E-001	1.46609E-003	7	...........	-327.66
	306	0.614	1.00826E-001	-3.84583E-006	0.00000E+000	1.00000E-001	1.47643E-003	7	...........	-327.66
	307	0.616	9.09049E-002	-3.88186E-006	0.00000E+000	9.00000E-002	1.49367E-003	7	...........	-327.66
	308	0.618	8.07997E-002	-3.91782E-006	0.00000E+000	8.00000E-002	1.44195E-003	7	...........	-327.66
	309	0.62	7.08316E-002	-3.95353E-006	0.00000E+000	7.00000E-002	1.43505E-003	7	...........	-327.66
	310	0.622	6.08532E-002	-3.98553E-006	0.00000E+000	6.00000E-002	1.47126E-003	7	...........	-327.66
	311	0.624	5.08273E-002	-4.01833E-006	0.00000E+000	5.00000E-002	1.43333E-003	7	...........	-327.66
	312	0.626	4.08213E-002	-4.05097E-006	0.00000E+000	4.00000E-002	1.41781E-003	7	...........	-327.66
	313	0.628	3.08204E-002	-4.08243E-006	0.00000E+000	3.00000E-002	1.44540E-003	7	...........	-327.66
	314	0.63	2.08359E-002	-4.11229E-006	0.00000E+000	2.00000E-002	1.41436E-003	7	...........	-327.66
	315	0.632	1.08851E-002	-4.14157E-006	0.00000E+000	9.99999E-003	1.41609E-003	7	...........	-327.66
	316	0.634	8.03169E-004	-4.17175E-006	0.00000E+000	-1.49012E-008	1.46781E-003	7	...........	-327.66
	317	0.636	-9.13562E-003	-4.19901E-006	0.00000E+000	-1.00000E-002	1.42126E-003	7	...........	-327.66
	318	0.638	-1.91391E-002	-4.22667E-006	0.00000E+000	-2.00000E-002	1.46264E-003	7	...........	-327.66
	319	0.64	-2.91494E-002	-4.25392E-006	0.00000E+000	-3.00000E-002	1.46953E-003	7	...........	-327.66
	320	0.642	-3.91417E-002	-4.28004E-006	0.00000E+000	-4.00000E-002	1.48678E-003	7	...........	-327.66
	321	0.644	-4.91641E-002	-4.30530E-006	0.00000E+000	-5.00000E-002	1.44540E-003	7	...........	-327.66
	322	0.646	-5.91632E-002	-4.33089E-006	0.00000E+000	-6.00000E-002	1.43678E-003	7	...........	-327.66
	323	0.648	-6.91184E-002	-4.35371E-006	0.00000E+000	-7.00000E-002	1.40402E-003	7	...........	-327.66
	324	0.65	-7.91805E-002	-4.37745E-006	0.00000E+000	-8.00000E-002	1.45919E-003	7	...........	-327.66
	325	0.652	-8.91348E-002	-4.39971E-006	0.00000E+000	-9.00000E-002	1.47988E-003	7	...........	-327.66
	326	0.654	-9.91649E-002	-4.42225E-006	0.00000E+000	-1.00000E-001	1.51264E-003	7	...........	-327.66
	327	0.656	-1.09143E-001	-4.44360E-006	0.00000E+000	-1.10000E-001	1.40747E-003	7	...........	-327.66
	328	0.658	-1.19163E-001	-4.46462E-006	0.00000E+000	-1.20000E-001	1.45574E-003	7	...........	-327.66
	329	0.66	-1.29181E-001	-4.48440E-006	0.00000E+000	-1.30000E-001	1.44540E-003	7	...........	-327.66
	330	0.662	-1.39146E-001	-4.50309E-006	0.00000E+000	-1.40000E-001	1.42298E-003	7	...........	-327.66
	331	0.664	-1.49170E-001	-4.52143E-006	0.00000E+000	-1.50000E-001	1.46264E-003	7	...........	-327.66
	332	0.666	-1.59189E-001	-4.53925E-006	0.00000E+000	-1.60000E-001	1.48850E-003	7	...........	-327.66
	333	0.668	-1.69139E-001	-4.55641E-006	0.00000E+000	-1.70000E-001	1.41953E-003	7	...........	-327.66
	334	0.67	-1.79191E-001	-4.57318E-006	0.00000E+000	-1.80000E-001	1.39367E-003	7	...........	-327.66
	335	0.672	-1.89095E-001	-4.58824E-006	0.00000E+000	-1.90000E-001	1.41264E-003	7	...........	-327.66
	336	0.674	-1.99192E-001	-4.60427E-006	0.00000E+000	-2.00000E-001	1.46264E-003	7	...........	-327.66
	337	0.676	-2.09116E-001	-4.61738E-006	0.00000E+000	-2.10000E-001	1.44884E-003	7	...........	-327.66
	338	0.678	-2.19099E-001	-4.63123E-006	0.00000E+000	-2.20000E-001	1.47643E-003	7	...........	-327.66
	339	0.68	-2.29130E-001	-4.64218E-006	0.00000E+000	-2.30000E-001	1.50229E-003	7	...........	-327.66
	340	0.682	-2.39171E-001	-4.65395E-006	0.00000E+000	-2.40000E-001	1.43333E-003	7	...........	-327.66
	341	0.684	-2.49115E-001	-4.66514E-006	0.00000E+000	-2.50000E-001	1.50919E-003	7	...........	-327.66
	342	0.686	-2.59163E-001	-4.67416E-006	0.00000E+000	-2.60000E-001	1.37298E-003	7	...........	-327.66
	343	0.688	-2.69085E-001	-4.68272E-006	0.00000E+000	-2.70000E-001	1.47643E-003	7	...........	-327.66
	344	0.69	-2.79154E-001	-4.69079E-006	0.00000E+000	-2.80000E-001	1.42643E-003	7	...........	-327.66
	345	0.692	-2.89119E-001	-4.69742E-006	0.00000E+000	-2.90000E-001	1.43333E-003	7	...........	-327.66
	346	0.694	-2.99123E-001	-4.70282E-006	0.00000E+000	-3.00000E-001	1.46781E-003	7	...........	-327.66
	347	0.696	-3.09153E-001	-4.70689E-006	0.00000E+000	-3.10000E-001	1.43160E-003	7	...........	-327.66
	348	0.698	-3.19151E-001	-4.71098E-006	0.00000E+000	-3.20000E-001	1.42815E-003	7	...........	-327.66
	349	0.7	-3.29159E-001	-4.71329E-006	0.00000E+000	-3.30000E-001	1.39022E-003	7	...........	-327.66
	350	0.702	-3.39163E-001	-4.71493E-006	0.00000E+000	-3.40000E-001	1.45229E-003	7	...........	-327.66
	351	0.704	-3.49144E-001	-4.71582E-006	0.00000E+000	-3.50000E-001	1.46781E-003	7	...........	-327.66
	352	0.706	-3.59165E-001	-4.71722E-006	0.00000E+000	-3.60000E-001	1.37471E-003	7	...........	-327.66
	353	0.708	-3.69024E-001	-4.71658E-006	0.00000E+000	-3.70000E-001	1.46781E-003	7	...........	-327.66
	354	0.71	-3.79141E-001	-4.71670E-006	0.00000E+000	-3.80000E-001	1.49022E-003	7	...........	-327.66
	355	0.712	-3.89120E-001	-4.71355E-006	0.00000E+000	-3.90000E-001	1.44540E-003	7	...........	-327.66
	356	0.714	-3.99134E-001	-4.71267E-006	0.00000E+000	-4.00000E-001	1.40229E-003	7	...........	-327.66
	357	0.716	-4.09157E-001	-4.71029E-006	0.00000E+000	-4.10000E-001	1.41781E-003	7	...........	-327.66
	358	0.718	-4.19105E-001	-4.70705E-006	0.00000E+000	-4.20000E-001	1.40402E-003	7	...........	-327.66
	359	0.72	-4.29115E-001	-4.70434E-006	0.00000E+000	-4.30000E-001	1.46781E-003	7	...........	-327.66
	360	0.722	-4.39158E-001	-4.70023E-006	0.00000E+000	-4.40000E-001	1.40057E-003	7	...........	-327.66
	361	0.724	-4.49089E-001	-4.69670E-006	0.00000E+000	-4.50000E-001	1.46091E-003	7	...........	-327.66
	362	0.726	-4.59145E-001	-4.69404E-006	0.00000E+000	-4.60000E-001	1.47643E-003	7	...........	-327.66
	363	0.728	-4.69061E-001	-4.68939E-006	0.00000E+000	-4.70000E-001	1.47988E-003	7	...........	-327.66
	364	0.73	-4.79109E-001	-4.68534E-006	0.00000E+000	-4.80000E-001	1.44195E-003	7	...........	-327.66
	365	0.732	-4.89113E-001	-4.68051E-006	0.00000E+000	-4.90000E-001	1.45919E-003	7	...........	-327.66
	366	0.734	-4.99078E-001	-4.67770E-006	0.00000E+000	-5.00000E-001	1.44712E-003	7	...........	-327.66
	367	0.736	-5.09112E-001	-4.67252E-006	0.00000E+000	-5.10000E-001	1.38678E-003	7	...........	-327.66
	368	0.738	-5.19156E-001	-4.66808E-006	0.00000E+000	-5.20000E-001	1.41264E-003	7	...........	-327.66
	369	0.74	-5.29104E-001	-4.66078E-006	0.00000E+000	-5.30000E-001	1.42126E-003	7	...........	-327.66
	370	0.742	-5.39156E-001	-4.65350E-006	0.00000E+000	-5.40000E-001	1.35747E-003	7	...........	-327.66
	371	0.744	-5.49102E-001	-4.64299E-006	0.00000E+000	-5.50000E-001	1.39022E-003	7	...........	-327.66
	372	0.746	-5.59163E-001	-4.63066E-006	0.00000E+000	-5.60000E-001	1.39022E-003	7	...........	-327.66
	373	0.748	-5.69119E-001	-4.61633E-006	0.00000E+000	-5.70000E-001	1.41609E-003	7	...........	-327.66
	374	0.75	-5.79078E-001	-4.59650E-006	0.00000E+000	-5.80000E-001	1.40402E-003	7	...........	-327.66
	375	0.752	-5.89149E-001	-4.57268E-006	0.00000E+000	-5.90000E-001	1.40919E-003	7	...........	-327.66
	376	0.754	-5.99111E-001	-4.54354E-006	0.00000E+000	-6.00000E-001	1.40229E-003	7	...........	-327.66
	377	0.756	-6.09141E-001	-4.50736E-006	0.00000E+000	-6.10000E-001	1.42126E-003	7	...........	-327.66
	378	0.758	-6.19102E-001	-4.46275E-006	0.00000E+000	-6.20000E-001	1.39367E-003	7	...........	-327.66
	379	0.76	-6.29033E-001	-4.40778E-006	0.00000E+000	-6.30000E-001	1.45747E-003	7	...........	-327.66
	380	0.762	-6.39133E-001	-4.34293E-006	0.00000E+000	-6.40000E-001	1.44367E-003	7	...........	-327.66
	381	0.764	-6.49073E-001	-4.26466E-006	0.00000E+000	-6.50000E-001	1.42126E-003	7	...........	-327.66
	382	0.766	-6.59073E-001	-4.17511E-006	0.00000E+000	-6.60000E-001	1.46436E-003	7	...........	-327.66
	383	0.768	-6.69054E-001	-4.07261E-006	0.00000E+000	-6.70000E-001	1.42643E-003	7	...........	-327.66
	384	0.77	-6.79052E-001	-3.95643E-006	0.00000E+000	-6.80000E-001	1.44195E-003	7	...........	-327.66
	385	0.772	-6.89100E-001	-3.82834E-006	0.00000E+000	-6.90000E-001	1.49195E-003	7	...........	-327.66
	386	0.774	-6.99106E-001	-3.68599E-006	0.00000E+000	-7.00000E-001	1.41091E-003	7	...........	-327.66
	387	0.776	-7.09041E-001	-3.52945E-006	0.00000E+000	-7.10000E-001	1.47126E-003	7	...........	-327.66
	388	0.778	-7.19151E-001	-3.36286E-006	0.00000E+000	-7.20000E-001	1.47298E-003	7	...........	-327.66
	389	0.78	-7.29056E-001	-3.18934E-006	0.00000E+000	-7.30000E-001	1.46953E-003	7	...........	-327.66
	390	0.782	-7.39114E-001	-3.01207E-006	0.00000E+000	-7.40000E-001	1.40919E-003	7	...........	-327.66
	391	0.784	-7.49079E-001	-2.83210E-006	0.00000E+000	-7.50000E-001	1.42815E-003	7	...........	-327.66
	392	0.786	-7.59099E-001	-2.65347E-006	0.00000E+000	-7.60000E-001	1.41091E-003	7	...........	-327.66
	393	0.788	-7.69120E-001	-2.47674E-006	0.00000E+000	-7.70000E-001	1.47988E-003	7	...........	-327.66
	394	0.79	-7.79087E-001	-2.30681E-006	0.00000E+000	-7.80000E-001	1.38160E-003	7	...........	-327.66
	395	0.792	-7.89102E-001	-2.14411E-006	0.00000E+000	-7.90000E-001	1.42471E-003	7	...........	-327.66
	396	0.794	-7.99156E-001	-1.99580E-006	0.00000E+000	-8.00000E-001	1.49195E-003	7	...........	-327.66
	397	0.796	-8.09102E-001	-1.85324E-006	0.00000E+000	-8.10000E-001	1.43678E-003	7	...........	-327.66
	398	0.798	-8.19149E-001	-1.72438E-006	0.00000E+000	-8.20000E-001	1.49367E-003	7	...........	-327.66
	399	0.8	-8.29046E-001	-1.60912E-006	0.00000E+000	-8.30000E-001	1.41953E-003	7	...........	-327.66
	400	0.802	-8.39139E-001	-1.50563E-006	0.00000E+000	-8.40000E-001	1.39195E-003	7	...........	-327.66
	401	0.804	-8.49129E-001	-1.40906E-006	0.00000E+000	-8.50000E-001	1.44712E-003	7	...........	-327.66
	402	0.806	-8.59055E-001	-1.32719E-006	0.00000E+000	-8.60000E-001	1.43505E-003	7	...........	-327.66
	403	0.808	-8.69114E-001	-1.25540E-006	0.00000E+000	-8.70000E-001	1.45402E-003	7	...........	-327.66
	404	0.81	-8.79124E-001	-1.19033E-006	0.00000E+000	-8.80000E-001	1.42471E-003	7	...........	-327.66
	405	0.812	-8.89108E-001	-1.13052E-006	0.00000E+000	-8.90000E-001	1.39712E-003	7	...........	-327.66
	406	0.814	-8.99123E-001	-1.07931E-006	0.00000E+000	-9.00000E-001	1.44712E-003	7	...........	-327.66
	407	0.816	-8.90691E-001	-9.53276E-007	0.00000E+000	-8.90000E-001	1.41953E-003	7	...........	-327.66
	408	0.818	-8.80686E-001	-8.62988E-007	0.00000E+000	-8.80000E-001	1.43505E-003	7	...........	-327.66
	409	0.82	-8.70703E-001	-7.93634E-007	0.00000E+000	-8.70000E-001	1.43678E-003	7	...........	-327.66
	410	0.822	-8.60662E-001	-7.34815E-007	0.00000E+000	-8.60000E-001	1.46953E-003	7	...........	-327.66
	411	0.824	-8.50667E-001	-6.81325E-007	0.00000E+000	-8.50000E-001	1.44884E-003	7	...........	-327.66
	412	0.826	-8.40706E-001	-6.33767E-007	0.00000E+000	-8.40000E-001	1.45402E-003	7	...........	-327.66
	413	0.828	-8.30653E-001	-5.88537E-007	0.00000E+000	-8.30000E-001	1.35919E-003	7	...........	-327.66
	414	0.83	-8.20680E-001	-5.46083E-007	0.00000E+000	-8.20000E-001	1.43850E-003	7	...........	-327.66
	415	0.832	-8.10650E-001	-5.03249E-007	0.00000E+000	-8.10000E-001	1.40402E-003	7	...........	-327.66
	416	0.834	-8.00696E-001	-4.63399E-007	0.00000E+000	-8.00000E-001	1.41264E-003	7	...........	-327.66
	417	0.836	-7.90689E-001	-4.20031E-007	0.00000E+000	-7.90000E-001	1.44884E-003	7	...........	-327.66
	418	0.838	-7.80611E-001	-3.74421E-007	0.00000E+000	-7.80000E-001	1.41091E-003	7	...........	-327.66
	419	0.84	-7.70620E-001	-3.30036E-007	0.00000E+000	-7.70000E-001	1.40574E-003	7	...........	-327.66
	420	0.842	-7.60651E-001	-2.81736E-007	0.00000E+000	-7.60000E-001	1.38850E-003	7	...........	-327.66
	421	0.844	-7.50672E-001	-2.27246E-007	0.00000E+000	-7.50000E-001	1.43333E-003	7	...........	-327.66
	422	0.846	-7.40732E-001	-1.68893E-007	0.00000E+000	-7.40000E-001	1.35919E-003	7	...........	-327.66
	423	0.848	-7.30683E-001	-1.03953E-007	0.00000E+000	-7.30000E-001	1.44540E-003	7	...........	-327.66
	424	0.85	-7.20716E-001	-3.36335E-008	0.00000E+000	-7.20000E-001	1.42643E-003	7	...........	-327.66
	425	0.852	-7.10682E-001	4.54635E-008	0.00000E+000	-7.10000E-001	1.46264E-003	7	...........	-327.66
	426	0.854	-7.00711E-001	1.32682E-007	0.00000E+000	-7.00000E-001	1.45229E-003	7	...........	-327.66
	427	0.856	-6.90701E-001	2.30127E-007	0.00000E+000	-6.90000E-001	1.43678E-003	7	...........	-327.66
	428	0.858	-6.80682E-001	3.39883E-007	0.00000E+000	-6.80000E-001	1.47298E-003	7	...........	-327.66
	429	0.86	-6.70670E-001	4.61675E-007	0.00000E+000	-6.70000E-001	1.43333E-003	7	...........	-327.66
	430	0.862	-6.60725E-001	5.95435E-007	0.00000E+000	-6.60000E-001	1.46436E-003	7	...........	-327.66
	431	0.864	-6.50722E-001	7.46904E-007	0.00000E+000	-6.50000E-001	1.42815E-003	7	...........	-327.66
	432	0.866	-6.40750E-001	9.12892E-007	0.00000E+000	-6.40000E-001	1.38333E-003	7	...........	-327.66
	433	0.868	-6.30692E-001	1.09554E-006	0.00000E+000	-6.30000E-001	1.36781E-003	7	...........	-327.66
	434	0.87	-6.20713E-001	1.29788E-006	0.00000E+000	-6.20000E-001	1.35919E-003	7	...........	-327.66
	435	0.872	-6.10767E-001	1.51768E-006	0.00000E+000	-6.10000E-001	1.47643E-003	7	...........	-327.66
	436	0.874	-6.00835E-001	1.75666E-006	0.00000E+000	-6.00000E-001	1.48678E-003	7	...........	-327.66
	437	0.876	-5.90753E-001	2.01801E-006	0.00000E+000	-5.90000E-001	1.45402E-003	7	...........	-327.66
	438	0.878	-5.80746E-001	2.29741E-006	0.00000E+000	-5.80000E-001	1.42643E-003	7	...........	-327.66
	439	0.88	-5.70728E-001	2.59721E-006	0.00000E+000	-5.70000E-001	1.38160E-003	7	...........	-327.66
	440	0.882	-5.60781E-001	2.91016E-006	0.00000E+000	-5.60000E-001	1.39022E-003	7	...........	-327.66
	441	0.884	-5.50672E-001	3.23471E-006	0.00000E+000	-5.50000E-001	1.40057E-003	7	...........	-327.66
	442	0.886	-5.40743E-001	3.56920E-006	0.00000E+000	-5.40000E-001	1.42988E-003	7	...........	-327.66
	443	0.888	-5.30760E-001	3.90228E-006	0.00000E+000	-5.30000E-001	1.39195E-003	7	...........	-327.66
	444	0.89	-5.20786E-001	4.22339E-006	0.00000E+000	-5.20000E-001	1.43850E-003	7	...........	-327.66
	445	0.892	-5.10759E-001	4.52154E-006	0.00000E+000	-5.10000E-001	1.39540E-003	7	...........	-327.66
	446	0.894	-5.00707E-001	4.77949E-006	0.00000E+000	-5.00000E-001	1.36264E-003	7	...........	-327.66
	447	0.896	-4.90763E-001	4.98817E-006	0.00000E+000	-4.90000E-001	1.36264E-003	7	...........	-327.66
	448	0.898	-4.80778E-001	5.14135E-006	0.00000E+000	-4.80000E-001	1.41781E-003	7	...........	-327.66
	449	0.9	-4.70680E-001	5.23771E-006	0.00000E+000	-4.70000E-001	1.38850E-003	7	...........	-327.66
	450	0.902	-4.60760E-001	5.27964E-006	0.00000E+000	-4.60000E-001	1.42471E-003	7	...........	-327.66
	451	0.904	-4.50736E-001	5.27469E-006	0.00000E+000	-4.50000E-001	1.41609E-003	7	...........	-327.66
	452	0.906	-4.40765E-001	5.23319E-006	0.00000E+000	-4.40000E-001	1.43505E-003	7	...........	-327.66
	453	0.908	-4.30767E-001	5.16720E-006	0.00000E+000	-4.30000E-001	1.40057E-003	7	...........	-327.66
	454	0.91	-4.20740E-001	5.08496E-006	0.00000E+000	-4.20000E-001	1.41436E-003	7	...........	-327.66
	455	0.912	-4.10779E-001	4.99616E-006	0.00000E+000	-4.10000E-001	1.39712E-003	7	...........	-327.66
	456	0.914	-4.00774E-001	4.90832E-006	0.00000E+000	-4.00000E-001	1.36436E-003	7	...........	-327.66
	457	0.916	-3.90741E-001	4.82341E-006	0.00000E+000	-3.90000E-001	1.40574E-003	7	...........	-327.66
	458	0.918	-3.80780E-001	4.74609E-006	0.00000E+000	-3.80000E-001	1.43160E-003	7	...........	-327.66
	459	0.92	-3.70783E-001	4.67846E-006	0.00000E+000	-3.70000E-001	1.40747E-003	7	...........	-327.66
	460	0.922	-3.60770E-001	4.61904E-006	0.00000E+000	-3.60000E-001	1.44884E-003	7	...........	-327.66
	461	0.924	-3.50768E-001	4.56889E-006	0.00000E+000	-3.50000E-001	1.49367E-003	7	...........	-327.66
	462	0.926	-3.40794E-001	4.52394E-006	0.00000E+000	-3.40000E-001	1.47126E-003	7	...........	-327.66
	463	0.928	-3.30806E-001	4.48841E-006	0.00000E+000	-3.30000E-001	1.39884E-003	7	...........	-327.66
	464	0.93	-3.20789E-001	4.45977E-006	0.00000E+000	-3.20000E-001	1.47815E-003	7	...........	-327.66
	465	0.932	-3.10765E-001	4.43675E-006	0.00000E+000	-3.10000E-001	1.46609E-003	7	...........	-327.66
	466	0.934	-3.00784E-001	4.41609E-006	0.00000E+000	-3.00000E-001	1.41609E-003	7	...........	-327.66
	467	0.936	-2.90753E-001	4.40076E-006	0.00000E+000	-2.90000E-001	1.45229E-003	7	...........	-327.66
	468	0.938	-2.80789E-001	4.38642E-006	0.00000E+000	-2.80000E-001	1.42815E-003	7	...........	-327.66
	469	0.94	-2.70723E-001	4.37148E-006	0.00000E+000	-2.70000E-001	1.45229E-003	7	...........	-327.66
	470	0.942	-2.60776E-001	4.35919E-006	0.00000E+000	-2.60000E-001	1.42471E-003	7	...........	-327.66
	471	0.944	-2.50793E-001	4.34591E-006	0.00000E+000	-2.50000E-001	1.38850E-003	7	...........	-327.66
	472	0.946	-2.40789E-001	4.33620E-006	0.00000E+000	-2.40000E-001	1.42988E-003	7	...........	-327.66
	473	0.948	-2.30774E-001	4.32660E-006	0.00000E+000	-2.30000E-001	1.46264E-003	7	...........	-327.66
	474	0.95	-2.20747E-001	4.31643E-006	0.00000E+000	-2.20000E-001	1.45747E-003	7	...........	-327.66
	475	0.952	-2.10772E-001	4.30965E-006	0.00000E+000	-2.10000E-001	1.47471E-003	7	...........	-327.66
	476	0.954	-2.00828E-001	4.30058E-006	0.00000E+000	-2.00000E-001	1.45919E-003	7	...........	-327.66
	477	0.956	-1.90761E-001	4.29494E-006	0.00000E+000	-1.90000E-001	1.42471E-003	7	...........	-327.66
	478	0.958	-1.80811E-001	4.28796E-006	0.00000E+000	-1.80000E-001	1.44195E-003	7	...........	-327.66
	479	0.96	-1.70791E-001	4.28363E-006	0.00000E+000	-1.70000E-001	1.41264E-003	7	...........	-327.66
	480	0.962	-1.60790E-001	4.27833E-006	0.00000E+000	-1.60000E-001	1.41953E-003	7	...........	-327.66
	481	0.964	-1.50799E-001	4.27352E-006	0.00000E+000	-1.50000E-001	1.49195E-003	7	...........	-327.66
	482	0.966	-1.40772E-001	4.26933E-006	0.00000E+000	-1.40000E-001	1.47815E-003	7	...........	-327.66
	483	0.968	-1.30805E-001	4.26581E-006	0.00000E+000	-1.30000E-001	1.45402E-003	7	...........	-327.66
	484	0.97	-1.20830E-001	4.26197E-006	0.00000E+000	-1.20000E-001	1.42126E-003	7	...........	-327.66
	485	0.972	-1.10795E-001	4.25885E-006	0.00000E+000	-1.10000E-001	1.46264E-003	7	...........	-327.66
	486	0.974	-1.00799E-001	4.25495E-006	0.00000E+000	-1.00000E-001	1.45229E-003	7	...........	-327.66
	487	0.976	-9.07908E-002	4.25249E-006	0.00000E+000	-9.00000E-002	1.39884E-003	7	...........	-327.66
	488	0.978	-8.08003E-002	4.24950E-006	0.00000E+000	-8.00000E-002	1.43678E-003	7	...........	-327.66
	489	0.98	-7.07693E-002	4.24688E-006	0.00000E+000	-7.00000E-002	1.43160E-003	7	...........	-327.66
	490	0.982	-6.07994E-002	4.24205E-006	0.00000E+000	-6.00000E-002	1.37815E-003	7	...........	-327.66
	491	0.984	-5.08080E-002	4.23985E-006	0.00000E+000	-5.00000E-002	1.46436E-003	7	...........	-327.66
	492	0.986	-4.07667E-002	4.23528E-006	0.00000E+000	-4.00000E-002	1.43333E-003	7	...........	-327.66
	493	0.988	-3.07891E-002	4.23138E-006	0.00000E+000	-3.00000E-002	1.49712E-003	7	...........	-327.66
	494	0.99	-2.07761E-002	4.22660E-006	0.00000E+000	-2.00000E-002	1.39195E-003	7	...........	-327.66
	495	0.992	-1.07865E-002	4.22158E-006	0.00000E+000	-1.00000E-002	1.41436E-003	7	...........	-327.66
	496	0.994	-8.08038E-004	4.21717E-006	0.00000E+000	-1.49012E-008	1.42643E-003	7	...........	-327.66
	497	0.996	9.23851E-003	4.21160E-006	0.00000E+000	9.99999E-003	1.46436E-003	7	...........	-327.66
	498	0.998	1.92342E-002	4.20467E-006	0.00000E+000	2.00000E-002	1.50402E-003	7	...........	-327.66
	499	1	2.92006E-002	4.19767E-006	0.00000E+000	3.00000E-002	1.43333E-003	7	...........	-327.66
	500	1.002	3.91463E-002	4.19132E-006	0.00000E+000	4.00000E-002	1.43160E-003	7	...........	-327.66
	501	1.004	4.92316E-002	4.18353E-006	0.00000E+000	5.00000E-002	1.45747E-003	7	...........	-327.66
	502	1.006	5.92213E-002	4.17575E-006	0.00000E+000	6.00000E-002	1.44884E-003	7	...........	-327.66
	503	1.008	6.92204E-002	4.16716E-006	0.00000E+000	7.00000E-002	1.40057E-003	7	...........	-327.66
	504	1.01	7.91954E-002	4.15814E-006	0.00000E+000	8.00000E-002	1.42815E-003	7	...........	-327.66
	505	1.012	8.92790E-002	4.15006E-006	0.00000E+000	9.00000E-002	1.39022E-003	7	...........	-327.66
	506	1.014	9.92152E-002	4.13933E-006	0.00000E+000	1.00000E-001	1.42988E-003	7	...........	-327.66
	507	1.016	1.09201E-001	4.13088E-006	0.00000E+000	1.10000E-001	1.43333E-003	7	...........	-327.66
	508	1.018	1.19217E-001	4.11955E-006	0.00000E+000	1.20000E-001	1.37988E-003	7	...........	-327.66
	509	1.02	1.29241E-001	4.11003E-006	0.00000E+000	1.30000E-001	1.40402E-003	7	...........	-327.66
	510	1.022	1.39265E-001	4.09986E-006	0.00000E+000	1.40000E-001	1.41781E-003	7	...........	-327.66
	511	1.024	1.49239E-001	4.08886E-006	0.00000E+000	1.50000E-001	1.46436E-003	7	...........	-327.66
	512	1.026	1.59215E-001	4.07863E-006	0.00000E+000	1.60000E-001	1.41953E-003	7	...........	-327.66
	513	1.028	1.69279E-001	4.06905E-006	0.00000E+000	1.70000E-001	1.42471E-003	7	...........	-327.66
	514	1.03	1.79209E-001	4.05813E-006	0.00000E+000	1.80000E-001	1.41091E-003	7	...........	-327.66
	515	1.032	1.89246E-001	4.04920E-006	0.00000E+000	1.90000E-001	1.36264E-003	7	...........	-327.66
	516	1.034	1.99196E-001	4.03752E-006	0.00000E+000	2.00000E-001	1.43505E-003	7	...........	-327.66
	517	1.036	2.09195E-001	4.02764E-006	0.00000E+000	2.10000E-001	1.40057E-003	7	...........	-327.66
	518	1.038	2.19204E-001	4.01826E-006	0.00000E+000	2.20000E-001	1.37298E-003	7	...........	-327.66
	519	1.04	2.29193E-001	4.00678E-006	0.00000E+000	2.30000E-001	1.47126E-003	7	...........	-327.66
	520	1.042	2.39210E-001	3.99823E-006	0.00000E+000	2.40000E-001	1.45057E-003	7	...........	-327.66
	521	1.044	2.49231E-001	3.98852E-006	0.00000E+000	2.50000E-001	1.42988E-003	7	...........	-327.66
	522	1.046	2.59170E-001	3.97871E-006	0.00000E+000	2.60000E-001	1.47988E-003	7	...........	-327.66
	523	1.048	2.69244E-001	3.97129E-006	0.00000E+000	2.70000E-001	1.43333E-003	7	...........	-327.66
	524	1.05	2.79168E-001	3.96245E-006	0.00000E+000	2.80000E-001	1.47126E-003	7	...........	-327.66
	525	1.052	2.89193E-001	3.95565E-006	0.00000E+000	2.90000E-001	1.46264E-003	7	...........	-327.66
	526	1.054	2.99194E-001	3.94715E-006	0.00000E+000	3.00000E-001	1.48505E-003	7	...........	-327.66
	527	1.056	3.09189E-001	3.94143E-006	0.00000E+000	3.10000E-001	1.46264E-003	7	...........	-327.66
	528	1.058	3.19193E-001	3.93582E-006	0.00000E+000	3.20000E-001	1.44540E-003	7	...........	-327.66
	529	1.06	3.29220E-001	3.93127E-006	0.00000E+000	3.30000E-001	1.42298E-003	7	...........	-327.66
	530	1.062	3.39195E-001	3.92620E-006	0.00000E+000	3.40000E-001	1.47126E-003	7	...........	-327.66
	531	1.064	3.49225E-001	3.92348E-006	0.00000E+000	3.50000E-001	1.47298E-003	7	...........	-327.66
	532	1.066	3.59177E-001	3.92111E-006	0.00000E+000	3.60000E-001	1.39022E-003	7	...........	-327.66
	533	1.068	3.69193E-001	3.91934E-006	0.00000E+000	3.70000E-001	1.37815E-003	7	...........	-327.66
	534	1.07	3.79195E-001	3.91882E-006	0.00000E+000	3.80000E-001	1.38850E-003	7	...........	-327.66
	535	1.072	3.89175E-001	3.91909E-006	0.00000E+000	3.90000E-001	1.49712E-003	7	...........	-327.66
	536	1.074	3.99214E-001	3.92056E-006	0.00000E+000	4.00000E-001	1.48678E-003	7	...........	-327.66
	537	1.076	4.09187E-001	3.92315E-006	0.00000E+000	4.10000E-001	1.38850E-003	7	...........	-327.66
	538	1.078	4.19177E-001	3.92725E-006	0.00000E+000	4.20000E-001	1.42126E-003	7	...........	-327.66
	539	1.08	4.29176E-001	3.93199E-006	0.00000E+000	4.30000E-001	1.47988E-003	7	...........	-327.66
	540	1.082	4.39166E-001	3.93744E-006	0.00000E+000	4.40000E-001	1.47126E-003	7	...........	-327.66
	541	1.084	4.49211E-001	3.94451E-006	0.00000E+000	4.50000E-001	1.49367E-003	7	...........	-327.66
	542	1.086	4.59178E-001	3.95300E-006	0.00000E+000	4.60000E-001	1.44195E-003	7	...........	-327.66
	543	1.088	4.69151E-001	3.96205E-006	0.00000E+000	4.70000E-001	1.52815E-003	7	...........	-327.66
	544	1.09	4.79167E-001	3.97226E-006	0.00000E+000	4.80000E-001	1.41609E-003	7	...........	-327.66
	545	1.092	4.89170E-001	3.98431E-006	0.00000E+000	4.90000E-001	1.45747E-003	7	...........	-327.66
	546	1.094	4.99188E-001	3.99740E-006	0.00000E+000	5.00000E-001	1.50057E-003	7	...........	-327.66
	547	1.096	5.09181E-001	4.01280E-006	0.00000E+000	5.10000E-001	1.45747E-003	7	...........	-327.66
	548	1.098	5.19169E-001	4.02818E-006	0.00000E+000	5.20000E-001	1.44540E-003	7	...........	-327.66
	549	1.1	5.29195E-001	4.04422E-006	0.00000E+000	5.30000E-001	1.41264E-003	7	...........	-327.66
	550	1.102	5.39187E-001	4.06186E-006	0.00000E+000	5.40000E-001	1.45057E-003	7	...........	-327.66
	551	1.104	5.49198E-001	4.08163E-006	0.00000E+000	5.50000E-001	1.43160E-003	7	...........	-327.66
	552	1.106	5.59169E-001	4.10079E-006	0.00000E+000	5.60000E-001	1.45919E-003	7	...........	-327.66
	553	1.108	5.69171E-001	4.12116E-006	0.00000E+000	5.70000E-001	1.47815E-003	7	...........	-327.66
	554	1.11	5.79187E-001	4.14209E-006	0.00000E+000	5.80000E-001	1.43850E-003	7	...........	-327.66
	555	1.112	5.89153E-001	4.16589E-006	0.00000E+000	5.90000E-001	1.48333E-003	7	...........	-327.66
	556	1.114	5.99177E-001	4.18868E-006	0.00000E+000	6.00000E-001	1.46091E-003	7	...........	-327.66
CURVE3	TABLE
	Pt	T	Vf	Im	Vu	Sig	Ach	IERange	Over	Temp
	#	s	V vs. Ref.	A	V	V	V	#	bits	deg C
	557	1.116	5.90755E-001	2.81829E-006	0.00000E+000	5.90000E-001	1.43850E-003	7	...........	-327.66
	558	1.118	5.80780E-001	2.07276E-006	0.00000E+000	5.80000E-001	1.49022E-003	7	...........	-327.66
	559	1.12	5.70749E-001	1.52992E-006	0.00000E+000	5.70000E-001	1.44367E-003	7	...........	-327.66
	560	1.122	5.60758E-001	1.08695E-006	0.00000E+000	5.60000E-001	1.43850E-003	7	...........	-327.66
	561	1.124	5.50770E-001	7.08312E-007	0.00000E+000	5.50000E-001	1.44022E-003	7	...........	-327.66
	562	1.126	5.40762E-001	3.76250E-007	0.00000E+000	5.40000E-001	1.35747E-003	7	...........	-327.66
	563	1.128	5.30802E-001	8.06752E-008	0.00000E+000	5.30000E-001	1.37643E-003	7	...........	-327.66
	564	1.13	5.20774E-001	-1.86258E-007	0.00000E+000	5.20000E-001	1.39195E-003	7	...........	-327.66
	565	1.132	5.10760E-001	-4.28843E-007	0.00000E+000	5.10000E-001	1.43850E-003	7	...........	-327.66
	566	1.134	5.00839E-001	-6.50235E-007	0.00000E+000	5.00000E-001	1.49540E-003	7	...........	-327.66
	567	1.136	4.90757E-001	-8.53728E-007	0.00000E+000	4.90000E-001	1.43678E-003	7	...........	-327.66
	568	1.138	4.80757E-001	-1.04120E-006	0.00000E+000	4.80000E-001	1.43850E-003	7	...........	-327.66
	569	1.14	4.70768E-001	-1.21335E-006	0.00000E+000	4.70000E-001	1.38333E-003	7	...........	-327.66
	570	1.142	4.60782E-001	-1.37609E-006	0.00000E+000	4.60000E-001	1.39367E-003	7	...........	-327.66
	571	1.144	4.50828E-001	-1.52358E-006	0.00000E+000	4.50000E-001	1.42126E-003	7	...........	-327.66
	572	1.146	4.40769E-001	-1.66441E-006	0.00000E+000	4.40000E-001	1.47298E-003	7	...........	-327.66
	573	1.148	4.30770E-001	-1.79467E-006	0.00000E+000	4.30000E-001	1.46091E-003	7	...........	-327.66
	574	1.15	4.20816E-001	-1.91644E-006	0.00000E+000	4.20000E-001	1.44712E-003	7	...........	-327.66
	575	1.152	4.10760E-001	-2.03104E-006	0.00000E+000	4.10000E-001	1.46781E-003	7	...........	-327.66
	576	1.154	4.00787E-001	-2.14013E-006	0.00000E+000	4.00000E-001	1.42988E-003	7	...........	-327.66
	577	1.156	3.90818E-001	-2.24190E-006	0.00000E+000	3.90000E-001	1.41609E-003	7	...........	-327.66
	578	1.158	3.80801E-001	-2.33795E-006	0.00000E+000	3.80000E-001	1.43333E-003	7	...........	-327.66
	579	1.16	3.70829E-001	-2.42763E-006	0.00000E+000	3.70000E-001	1.42815E-003	7	...........	-327.66
	580	1.162	3.60778E-001	-2.51373E-006	0.00000E+000	3.60000E-001	1.38678E-003	7	...........	-327.66
	581	1.164	3.50824E-001	-2.59584E-006	0.00000E+000	3.50000E-001	1.45747E-003	7	...........	-327.66
	582	1.166	3.40811E-001	-2.67303E-006	0.00000E+000	3.40000E-001	1.44022E-003	7	...........	-327.66
	583	1.168	3.30816E-001	-2.74647E-006	0.00000E+000	3.30000E-001	1.43678E-003	7	...........	-327.66
	584	1.17	3.20802E-001	-2.81746E-006	0.00000E+000	3.20000E-001	1.44712E-003	7	...........	-327.66
	585	1.172	3.10771E-001	-2.88532E-006	0.00000E+000	3.10000E-001	1.45919E-003	7	...........	-327.66
	586	1.174	3.00800E-001	-2.95136E-006	0.00000E+000	3.00000E-001	1.44195E-003	7	...........	-327.66
	587	1.176	2.90825E-001	-3.01066E-006	0.00000E+000	2.90000E-001	1.39367E-003	7	...........	-327.66
	588	1.178	2.80769E-001	-3.07105E-006	0.00000E+000	2.80000E-001	1.49884E-003	7	...........	-327.66
	589	1.18	2.70853E-001	-3.12852E-006	0.00000E+000	2.70000E-001	1.47126E-003	7	...........	-327.66
	590	1.182	2.60782E-001	-3.18449E-006	0.00000E+000	2.60000E-001	1.40402E-003	7	...........	-327.66
	591	1.184	2.50836E-001	-3.23745E-006	0.00000E+000	2.50000E-001	1.51264E-003	7	...........	-327.66
	592	1.186	2.40808E-001	-3.28873E-006	0.00000E+000	2.40000E-001	1.41436E-003	7	...........	-327.66
	593	1.188	2.30790E-001	-3.33981E-006	0.00000E+000	2.30000E-001	1.41091E-003	7	...........	-327.66
	594	1.19	2.20835E-001	-3.38864E-006	0.00000E+000	2.20000E-001	1.45747E-003	7	...........	-327.66
	595	1.192	2.10780E-001	-3.43577E-006	0.00000E+000	2.10000E-001	1.45402E-003	7	...........	-327.66
	596	1.194	2.00828E-001	-3.48138E-006	0.00000E+000	2.00000E-001	1.49022E-003	7	...........	-327.66
	597	1.196	1.90866E-001	-3.52585E-006	0.00000E+000	1.90000E-001	1.44540E-003	7	...........	-327.66
	598	1.198	1.80822E-001	-3.56868E-006	0.00000E+000	1.80000E-001	1.43678E-003	7	...........	-327.66
	599	1.2	1.70864E-001	-3.61167E-006	0.00000E+000	1.70000E-001	1.41091E-003	7	...........	-327.66
	600	1.202	1.60817E-001	-3.65285E-006	0.00000E+000	1.60000E-001	1.36781E-003	7	...........	-327.66
	601	1.204	1.50826E-001	-3.69272E-006	0.00000E+000	1.50000E-001	1.40229E-003	7	...........	-327.66
	602	1.206	1.40872E-001	-3.73253E-006	0.00000E+000	1.40000E-001	1.39022E-003	7	...........	-327.66
	603	1.208	1.30867E-001	-3.76931E-006	0.00000E+000	1.30000E-001	1.40574E-003	7	...........	-327.66
	604	1.21	1.20800E-001	-3.80768E-006	0.00000E+000	1.20000E-001	1.38850E-003	7	...........	-327.66
	605	1.212	1.10825E-001	-3.84298E-006	0.00000E+000	1.10000E-001	1.37643E-003	7	...........	-327.66
	606	1.214	1.00820E-001	-3.87816E-006	0.00000E+000	1.00000E-001	1.39022E-003	7	...........	-327.66
	607	1.216	9.08971E-002	-3.91290E-006	0.00000E+000	9.00000E-002	1.46609E-003	7	...........	-327.66
	608	1.218	8.08032E-002	-3.94677E-006	0.00000E+000	8.00000E-002	1.47815E-003	7	...........	-327.66
	609	1.22	7.08290E-002	-3.98014E-006	0.00000E+000	7.00000E-002	1.46781E-003	7	...........	-327.66
	610	1.222	6.08428E-002	-4.01154E-006	0.00000E+000	6.00000E-002	1.47815E-003	7	...........	-327.66
	611	1.224	5.08325E-002	-4.04289E-006	0.00000E+000	5.00000E-002	1.44367E-003	7	...........	-327.66
	612	1.226	4.08187E-002	-4.07294E-006	0.00000E+000	4.00000E-002	1.46091E-003	7	...........	-327.66
	613	1.228	3.08239E-002	-4.10324E-006	0.00000E+000	3.00000E-002	1.45919E-003	7	...........	-327.66
	614	1.23	2.08316E-002	-4.13040E-006	0.00000E+000	2.00000E-002	1.49712E-003	7	...........	-327.66
	615	1.232	1.08609E-002	-4.15833E-006	0.00000E+000	9.99999E-003	1.39367E-003	7	...........	-327.66
	616	1.234	8.00583E-004	-4.18718E-006	0.00000E+000	-1.49012E-008	1.44884E-003	7	...........	-327.66
	617	1.236	-9.14855E-003	-4.21263E-006	0.00000E+000	-1.00000E-002	1.41264E-003	7	...........	-327.66
	618	1.238	-1.91555E-002	-4.23881E-006	0.00000E+000	-2.00000E-002	1.37988E-003	7	...........	-327.66
	619	1.24	-2.91779E-002	-4.26300E-006	0.00000E+000	-3.00000E-002	1.46091E-003	7	...........	-327.66
	620	1.242	-3.91382E-002	-4.28858E-006	0.00000E+000	-4.00000E-002	1.47988E-003	7	...........	-327.66
	621	1.244	-4.91649E-002	-4.31232E-006	0.00000E+000	-5.00000E-002	1.41091E-003	7	...........	-327.66
	622	1.246	-5.91554E-002	-4.33606E-006	0.00000E+000	-6.00000E-002	1.44367E-003	7	...........	-327.66
	623	1.248	-6.91339E-002	-4.35753E-006	0.00000E+000	-7.00000E-002	1.37988E-003	7	...........	-327.66
	624	1.25	-7.91787E-002	-4.37881E-006	0.00000E+000	-8.00000E-002	1.42126E-003	7	...........	-327.66
	625	1.252	-8.91425E-002	-4.40107E-006	0.00000E+000	-9.00000E-002	1.45402E-003	7	...........	-327.66
	626	1.254	-9.91710E-002	-4.42158E-006	0.00000E+000	-1.00000E-001	1.47126E-003	7	...........	-327.66
	627	1.256	-1.09164E-001	-4.44099E-006	0.00000E+000	-1.10000E-001	1.48678E-003	7	...........	-327.66
	628	1.258	-1.19174E-001	-4.45989E-006	0.00000E+000	-1.20000E-001	1.39540E-003	7	...........	-327.66
	629	1.26	-1.29208E-001	-4.47869E-006	0.00000E+000	-1.30000E-001	1.42471E-003	7	...........	-327.66
	630	1.262	-1.39117E-001	-4.49498E-006	0.00000E+000	-1.40000E-001	1.44195E-003	7	...........	-327.66
	631	1.264	-1.49192E-001	-4.51352E-006	0.00000E+000	-1.50000E-001	1.42298E-003	7	...........	-327.66
	632	1.266	-1.59190E-001	-4.53035E-006	0.00000E+000	-1.60000E-001	1.46264E-003	7	...........	-327.66
	633	1.268	-1.69139E-001	-4.54497E-006	0.00000E+000	-1.70000E-001	1.43678E-003	7	...........	-327.66
	634	1.27	-1.79180E-001	-4.56063E-006	0.00000E+000	-1.80000E-001	1.40229E-003	7	...........	-327.66
	635	1.272	-1.89105E-001	-4.57422E-006	0.00000E+000	-1.90000E-001	1.40229E-003	7	...........	-327.66
	636	1.274	-1.99180E-001	-4.58891E-006	0.00000E+000	-2.00000E-001	1.40574E-003	7	...........	-327.66
	637	1.276	-2.09161E-001	-4.59958E-006	0.00000E+000	-2.10000E-001	1.43505E-003	7	...........	-327.66
	638	1.278	-2.19073E-001	-4.61203E-006	0.00000E+000	-2.20000E-001	1.42643E-003	7	...........	-327.66
	639	1.28	-2.29124E-001	-4.62198E-006	0.00000E+000	-2.30000E-001	1.37815E-003	7	...........	-327.66
	640	1.282	-2.39174E-001	-4.63178E-006	0.00000E+000	-2.40000E-001	1.42988E-003	7	...........	-327.66
	641	1.284	-2.49125E-001	-4.64231E-006	0.00000E+000	-2.50000E-001	1.35574E-003	7	...........	-327.66
	642	1.286	-2.59130E-001	-4.64997E-006	0.00000E+000	-2.60000E-001	1.46781E-003	7	...........	-327.66
	643	1.288	-2.69091E-001	-4.65525E-006	0.00000E+000	-2.70000E-001	1.51264E-003	7	...........	-327.66
	644	1.29	-2.79169E-001	-4.66176E-006	0.00000E+000	-2.80000E-001	1.47643E-003	7	...........	-327.66
	645	1.292	-2.89143E-001	-4.66675E-006	0.00000E+000	-2.90000E-001	1.41953E-003	7	...........	-327.66
	646	1.294	-2.99121E-001	-4.67044E-006	0.00000E+000	-3.00000E-001	1.46436E-003	7	...........	-327.66
	647	1.296	-3.09154E-001	-4.67292E-006	0.00000E+000	-3.10000E-001	1.43160E-003	7	...........	-327.66
	648	1.298	-3.19159E-001	-4.67428E-006	0.00000E+000	-3.20000E-001	1.45747E-003	7	...........	-327.66
	649	1.3	-3.29165E-001	-4.67582E-006	0.00000E+000	-3.30000E-001	1.40057E-003	7	...........	-327.66
	650	1.302	-3.39167E-001	-4.67652E-006	0.00000E+000	-3.40000E-001	1.47988E-003	7	...........	-327.66
	651	1.304	-3.49132E-001	-4.67416E-006	0.00000E+000	-3.50000E-001	1.44367E-003	7	...........	-327.66
	652	1.306	-3.59164E-001	-4.67470E-006	0.00000E+000	-3.60000E-001	1.42643E-003	7	...........	-327.66
	653	1.308	-3.69038E-001	-4.67258E-006	0.00000E+000	-3.70000E-001	1.44022E-003	7	...........	-327.66
	654	1.31	-3.79148E-001	-4.66890E-006	0.00000E+000	-3.80000E-001	1.47988E-003	7	...........	-327.66
	655	1.312	-3.89111E-001	-4.66645E-006	0.00000E+000	-3.90000E-001	1.50402E-003	7	...........	-327.66
	656	1.314	-3.99124E-001	-4.66197E-006	0.00000E+000	-4.00000E-001	1.46091E-003	7	...........	-327.66
	657	1.316	-4.09125E-001	-4.65847E-006	0.00000E+000	-4.10000E-001	1.47643E-003	7	...........	-327.66
	658	1.318	-4.19115E-001	-4.65369E-006	0.00000E+000	-4.20000E-001	1.46953E-003	7	...........	-327.66
	659	1.32	-4.29109E-001	-4.64821E-006	0.00000E+000	-4.30000E-001	1.48333E-003	7	...........	-327.66
	660	1.322	-4.39145E-001	-4.64271E-006	0.00000E+000	-4.40000E-001	1.51609E-003	7	...........	-327.66
	661	1.324	-4.49072E-001	-4.63747E-006	0.00000E+000	-4.50000E-001	1.42643E-003	7	...........	-327.66
	662	1.326	-4.59140E-001	-4.63200E-006	0.00000E+000	-4.60000E-001	1.41091E-003	7	...........	-327.66
	663	1.328	-4.69062E-001	-4.62586E-006	0.00000E+000	-4.70000E-001	1.49712E-003	7	...........	-327.66
	664	1.33	-4.79116E-001	-4.62009E-006	0.00000E+000	-4.80000E-001	1.41436E-003	7	...........	-327.66
	665	1.332	-4.89134E-001	-4.61331E-006	0.00000E+000	-4.90000E-001	1.43505E-003	7	...........	-327.66
	666	1.334	-4.99061E-001	-4.60796E-006	0.00000E+000	-5.00000E-001	1.40919E-003	7	...........	-327.66
	667	1.336	-5.09109E-001	-4.59984E-006	0.00000E+000	-5.10000E-001	1.48850E-003	7	...........	-327.66
	668	1.338	-5.19160E-001	-4.59384E-006	0.00000E+000	-5.20000E-001	1.39195E-003	7	...........	-327.66
	669	1.34	-5.29124E-001	-4.58539E-006	0.00000E+000	-5.30000E-001	1.45402E-003	7	...........	-327.66
	670	1.342	-5.39132E-001	-4.57506E-006	0.00000E+000	-5.40000E-001	1.44195E-003	7	...........	-327.66
	671	1.344	-5.49075E-001	-4.56361E-006	0.00000E+000	-5.50000E-001	1.39022E-003	7	...........	-327.66
	672	1.346	-5.59160E-001	-4.54820E-006	0.00000E+000	-5.60000E-001	1.36091E-003	7	...........	-327.66
	673	1.348	-5.69137E-001	-4.53171E-006	0.00000E+000	-5.70000E-001	1.38850E-003	7	...........	-327.66
	674	1.35	-5.79065E-001	-4.50859E-006	0.00000E+000	-5.80000E-001	1.41609E-003	7	...........	-327.66
	675	1.352	-5.89117E-001	-4.48322E-006	0.00000E+000	-5.90000E-001	1.39540E-003	7	...........	-327.66
	676	1.354	-5.99143E-001	-4.45124E-006	0.00000E+000	-6.00000E-001	1.40747E-003	7	...........	-327.66
	677	1.356	-6.09130E-001	-4.41163E-006	0.00000E+000	-6.10000E-001	1.39367E-003	7	...........	-327.66
	678	1.358	-6.19116E-001	-4.36398E-006	0.00000E+000	-6.20000E-001	1.40919E-003	7	...........	-327.66
	679	1.36	-6.29057E-001	-4.30668E-006	0.00000E+000	-6.30000E-001	1.42643E-003	7	...........	-327.66
	680	1.362	-6.39125E-001	-4.23952E-006	0.00000E+000	-6.40000E-001	1.44712E-003	7	...........	-327.66
	681	1.364	-6.49062E-001	-4.15959E-006	0.00000E+000	-6.50000E-001	1.44195E-003	7	...........	-327.66
	682	1.366	-6.59100E-001	-4.07015E-006	0.00000E+000	-6.60000E-001	1.40919E-003	7	...........	-327.66
	683	1.368	-6.69058E-001	-3.96529E-006	0.00000E+000	-6.70000E-001	1.42126E-003	7	...........	-327.66
	684	1.37	-6.79059E-001	-3.84821E-006	0.00000E+000	-6.80000E-001	1.40574E-003	7	...........	-327.66
	685	1.372	-6.89105E-001	-3.71755E-006	0.00000E+000	-6.90000E-001	1.40919E-003	7	...........	-327.66
	686	1.374	-6.99088E-001	-3.57544E-006	0.00000E+000	-7.00000E-001	1.43333E-003	7	...........	-327.66
	687	1.376	-7.09051E-001	-3.42394E-006	0.00000E+000	-7.10000E-001	1.42126E-003	7	...........	-327.66
	688	1.378	-7.19133E-001	-3.26290E-006	0.00000E+000	-7.20000E-001	1.48333E-003	7	...........	-327.66
	689	1.38	-7.29072E-001	-3.09593E-006	0.00000E+000	-7.30000E-001	1.45402E-003	7	...........	-327.66
	690	1.382	-7.39142E-001	-2.92465E-006	0.00000E+000	-7.40000E-001	1.49712E-003	7	...........	-327.66
	691	1.384	-7.49065E-001	-2.75131E-006	0.00000E+000	-7.50000E-001	1.48333E-003	7	...........	-327.66
	692	1.386	-7.59089E-001	-2.57991E-006	0.00000E+000	-7.60000E-001	1.42298E-003	7	...........	-327.66
	693	1.388	-7.69101E-001	-2.41230E-006	0.00000E+000	-7.70000E-001	1.49367E-003	7	...........	-327.66
	694	1.39	-7.79085E-001	-2.25337E-006	0.00000E+000	-7.80000E-001	1.44195E-003	7	...........	-327.66
	695	1.392	-7.89121E-001	-2.09893E-006	0.00000E+000	-7.90000E-001	1.49712E-003	7	...........	-327.66
	696	1.394	-7.99144E-001	-1.95488E-006	0.00000E+000	-8.00000E-001	1.46781E-003	7	...........	-327.66
	697	1.396	-8.09093E-001	-1.81939E-006	0.00000E+000	-8.10000E-001	1.41609E-003	7	...........	-327.66
	698	1.398	-8.19149E-001	-1.69993E-006	0.00000E+000	-8.20000E-001	1.43505E-003	7	...........	-327.66
	699	1.4	-8.29036E-001	-1.58728E-006	0.00000E+000	-8.30000E-001	1.39195E-003	7	...........	-327.66
	700	1.402	-8.39158E-001	-1.49068E-006	0.00000E+000	-8.40000E-001	1.51609E-003	7	...........	-327.66
	701	1.404	-8.49124E-001	-1.39880E-006	0.00000E+000	-8.50000E-001	1.47126E-003	7	...........	-327.66
	702	1.406	-8.59072E-001	-1.31739E-006	0.00000E+000	-8.60000E-001	1.47643E-003	7	...........	-327.66
	703	1.408	-8.69152E-001	-1.24457E-006	0.00000E+000	-8.70000E-001	1.40574E-003	7	...........	-327.66
	704	1.41	-8.79147E-001	-1.18134E-006	0.00000E+000	-8.80000E-001	1.44195E-003	7	...........	-327.66
	705	1.412	-8.89111E-001	-1.12477E-006	0.00000E+000	-8.90000E-001	1.42988E-003	7	...........	-327.66
	706	1.414	-8.99128E-001	-1.07410E-006	0.00000E+000	-9.00000E-001	1.40747E-003	7	...........	-327.66
	707	1.416	-8.90699E-001	-9.48637E-007	0.00000E+000	-8.90000E-001	1.41953E-003	7	...........	-327.66
	708	1.418	-8.80661E-001	-8.59850E-007	0.00000E+000	-8.80000E-001	1.41781E-003	7	...........	-327.66
	709	1.42	-8.70680E-001	-7.90702E-007	0.00000E+000	-8.70000E-001	1.44712E-003	7	...........	-327.66
	710	1.422	-8.60662E-001	-7.31332E-007	0.00000E+000	-8.60000E-001	1.44367E-003	7	...........	-327.66
	711	1.424	-8.50697E-001	-6.80998E-007	0.00000E+000	-8.50000E-001	1.45919E-003	7	...........	-327.66
	712	1.426	-8.40709E-001	-6.33215E-007	0.00000E+000	-8.40000E-001	1.42988E-003	7	...........	-327.66
	713	1.428	-8.30643E-001	-5.86174E-007	0.00000E+000	-8.30000E-001	1.38160E-003	7	...........	-327.66
	714	1.43	-8.20702E-001	-5.43582E-007	0.00000E+000	-8.20000E-001	1.43850E-003	7	...........	-327.66
	715	1.432	-8.10630E-001	-4.99749E-007	0.00000E+000	-8.10000E-001	1.45402E-003	7	...........	-327.66
	716	1.434	-8.00684E-001	-4.58450E-007	0.00000E+000	-8.00000E-001	1.42815E-003	7	...........	-327.66
	717	1.436	-7.90680E-001	-4.16134E-007	0.00000E+000	-7.90000E-001	1.40402E-003	7	...........	-327.66
	718	1.438	-7.80620E-001	-3.68938E-007	0.00000E+000	-7.80000E-001	1.39195E-003	7	...........	-327.66
	719	1.44	-7.70667E-001	-3.23604E-007	0.00000E+000	-7.70000E-001	1.44884E-003	7	...........	-327.66
	720	1.442	-7.60651E-001	-2.72752E-007	0.00000E+000	-7.60000E-001	1.46781E-003	7	...........	-327.66
	721	1.444	-7.50641E-001	-2.17159E-007	0.00000E+000	-7.50000E-001	1.47471E-003	7	...........	-327.66
	722	1.446	-7.40740E-001	-1.57495E-007	0.00000E+000	-7.40000E-001	1.45747E-003	7	...........	-327.66
	723	1.448	-7.30669E-001	-9.17449E-008	0.00000E+000	-7.30000E-001	1.47988E-003	7	...........	-327.66
	724	1.45	-7.20724E-001	-1.93902E-008	0.00000E+000	-7.20000E-001	1.46264E-003	7	...........	-327.66
	725	1.452	-7.10685E-001	6.07932E-008	0.00000E+000	-7.10000E-001	1.42643E-003	7	...........	-327.66
	726	1.454	-7.00708E-001	1.50530E-007	0.00000E+000	-7.00000E-001	1.45229E-003	7	...........	-327.66
	727	1.456	-6.90753E-001	2.50319E-007	0.00000E+000	-6.90000E-001	1.48333E-003	7	...........	-327.66
	728	1.458	-6.80680E-001	3.62438E-007	0.00000E+000	-6.80000E-001	1.50229E-003	7	...........	-327.66
	729	1.46	-6.70646E-001	4.86489E-007	0.00000E+000	-6.70000E-001	1.37988E-003	7	...........	-327.66
	730	1.462	-6.60726E-001	6.23404E-007	0.00000E+000	-6.60000E-001	1.36091E-003	7	...........	-327.66
	731	1.464	-6.50711E-001	7.77822E-007	0.00000E+000	-6.50000E-001	1.42988E-003	7	...........	-327.66
	732	1.466	-6.40756E-001	9.46276E-007	0.00000E+000	-6.40000E-001	1.45919E-003	7	...........	-327.66
	733	1.468	-6.30674E-001	1.13422E-006	0.00000E+000	-6.30000E-001	1.42471E-003	7	...........	-327.66
	734	1.47	-6.20692E-001	1.33826E-006	0.00000E+000	-6.20000E-001	1.46781E-003	7	...........	-327.66
	735	1.472	-6.10750E-001	1.56234E-006	0.00000E+000	-6.10000E-001	1.41264E-003	7	...........	-327.66
	736	1.474	-6.00727E-001	1.80679E-006	0.00000E+000	-6.00000E-001	1.44540E-003	7	...........	-327.66
	737	1.476	-5.90712E-001	2.06826E-006	0.00000E+000	-5.90000E-001	1.49367E-003	7	...........	-327.66
	738	1.478	-5.80742E-001	2.35180E-006	0.00000E+000	-5.80000E-001	1.45402E-003	7	...........	-327.66
	739	1.48	-5.70724E-001	2.64890E-006	0.00000E+000	-5.70000E-001	1.43678E-003	7	...........	-327.66
	740	1.482	-5.60759E-001	2.96443E-006	0.00000E+000	-5.60000E-001	1.41264E-003	7	...........	-327.66
	741	1.484	-5.50715E-001	3.29361E-006	0.00000E+000	-5.50000E-001	1.43850E-003	7	...........	-327.66
	742	1.486	-5.40748E-001	3.62928E-006	0.00000E+000	-5.40000E-001	1.41781E-003	7	...........	-327.66
	743	1.488	-5.30775E-001	3.95924E-006	0.00000E+000	-5.30000E-001	1.40574E-003	7	...........	-327.66
	744	1.49	-5.20748E-001	4.27809E-006	0.00000E+000	-5.20000E-001	1.41436E-003	7	...........	-327.66
	745	1.492	-5.10778E-001	4.56760E-006	0.00000E+000	-5.10000E-001	1.45057E-003	7	...........	-327.66
	746	1.494	-5.00723E-001	4.81782E-006	0.00000E+000	-5.00000E-001	1.44195E-003	7	...........	-327.66
	747	1.496	-4.90765E-001	5.01707E-006	0.00000E+000	-4.90000E-001	1.38505E-003	7	...........	-327.66
	748	1.498	-4.80761E-001	5.15769E-006	0.00000E+000	-4.80000E-001	1.38678E-003	7	...........	-327.66
	749	1.5	-4.70709E-001	5.24150E-006	0.00000E+000	-4.70000E-001	1.41436E-003	7	...........	-327.66
	750	1.502	-4.60795E-001	5.26836E-006	0.00000E+000	-4.60000E-001	1.39540E-003	7	...........	-327.66
	751	1.504	-4.50736E-001	5.24826E-006	0.00000E+000	-4.50000E-001	1.41091E-003	7	...........	-327.66
	752	1.506	-4.40766E-001	5.19625E-006	0.00000E+000	-4.40000E-001	1.48160E-003	7	...........	-327.66
	753	1.508	-4.30768E-001	5.12219E-006	0.00000E+000	-4.30000E-001	1.44195E-003	7	...........	-327.66
	754	1.51	-4.20758E-001	5.03507E-006	0.00000E+000	-4.20000E-001	1.46264E-003	7	...........	-327.66
	755	1.512	-4.10767E-001	4.94399E-006	0.00000E+000	-4.10000E-001	1.39195E-003	7	...........	-327.66
	756	1.514	-4.00793E-001	4.85339E-006	0.00000E+000	-4.00000E-001	1.43505E-003	7	...........	-327.66
	757	1.516	-3.90765E-001	4.76957E-006	0.00000E+000	-3.90000E-001	1.36953E-003	7	...........	-327.66
	758	1.518	-3.80780E-001	4.69261E-006	0.00000E+000	-3.80000E-001	1.44540E-003	7	...........	-327.66
	759	1.52	-3.70736E-001	4.62586E-006	0.00000E+000	-3.70000E-001	1.40574E-003	7	...........	-327.66
	760	1.522	-3.60778E-001	4.56736E-006	0.00000E+000	-3.60000E-001	1.48678E-003	7	...........	-327.66
	761	1.524	-3.50766E-001	4.51771E-006	0.00000E+000	-3.50000E-001	1.45057E-003	7	...........	-327.66
	762	1.526	-3.40781E-001	4.47626E-006	0.00000E+000	-3.40000E-001	1.46781E-003	7	...........	-327.66
	763	1.528	-3.30790E-001	4.44351E-006	0.00000E+000	-3.30000E-001	1.49195E-003	7	...........	-327.66
	764	1.53	-3.20796E-001	4.41647E-006	0.00000E+000	-3.20000E-001	1.43505E-003	7	...........	-327.66
	765	1.532	-3.10771E-001	4.39594E-006	0.00000E+000	-3.10000E-001	1.40402E-003	7	...........	-327.66
	766	1.534	-3.00781E-001	4.37540E-006	0.00000E+000	-3.00000E-001	1.43678E-003	7	...........	-327.66
	767	1.536	-2.90780E-001	4.35897E-006	0.00000E+000	-2.90000E-001	1.39195E-003	7	...........	-327.66
	768	1.538	-2.80776E-001	4.34460E-006	0.00000E+000	-2.80000E-001	1.39884E-003	7	...........	-327.66
	769	1.54	-2.70724E-001	4.33029E-006	0.00000E+000	-2.70000E-001	1.44195E-003	7	...........	-327.66
	770	1.542	-2.60782E-001	4.31761E-006	0.00000E+000	-2.60000E-001	1.45229E-003	7	...........	-327.66
	771	1.544	-2.50790E-001	4.30722E-006	0.00000E+000	-2.50000E-001	1.40747E-003	7	...........	-327.66
	772	1.546	-2.40799E-001	4.29792E-006	0.00000E+000	-2.40000E-001	1.45574E-003	7	...........	-327.66
	773	1.548	-2.30778E-001	4.28952E-006	0.00000E+000	-2.30000E-001	1.45229E-003	7	...........	-327.66
	774	1.55	-2.20746E-001	4.28106E-006	0.00000E+000	-2.20000E-001	1.41609E-003	7	...........	-327.66
	775	1.552	-2.10783E-001	4.27509E-006	0.00000E+000	-2.10000E-001	1.45747E-003	7	...........	-327.66
	776	1.554	-2.00809E-001	4.26787E-006	0.00000E+000	-2.00000E-001	1.44195E-003	7	...........	-327.66
	777	1.556	-1.90771E-001	4.26326E-006	0.00000E+000	-1.90000E-001	1.45057E-003	7	...........	-327.66
	778	1.558	-1.80780E-001	4.25718E-006	0.00000E+000	-1.80000E-001	1.47815E-003	7	...........	-327.66
	779	1.56	-1.70794E-001	4.25281E-006	0.00000E+000	-1.70000E-001	1.47298E-003	7	...........	-327.66
	780	1.562	-1.60793E-001	4.24876E-006	0.00000E+000	-1.60000E-001	1.44367E-003	7	...........	-327.66
	781	1.564	-1.50819E-001	4.24533E-006	0.00000E+000	-1.50000E-001	1.42988E-003	7	...........	-327.66
	782	1.566	-1.40786E-001	4.24167E-006	0.00000E+000	-1.40000E-001	1.42471E-003	7	...........	-327.66
	783	1.568	-1.30784E-001	4.23836E-006	0.00000E+000	-1.30000E-001	1.47988E-003	7	...........	-327.66
	784	1.57	-1.20789E-001	4.23624E-006	0.00000E+000	-1.20000E-001	1.45057E-003	7	...........	-327.66
	785	1.572	-1.10799E-001	4.23291E-006	0.00000E+000	-1.10000E-001	1.41091E-003	7	...........	-327.66
	786	1.574	-1.00799E-001	4.23017E-006	0.00000E+000	-1.00000E-001	1.44712E-003	7	...........	-327.66
	787	1.576	-9.07908E-002	4.22771E-006	0.00000E+000	-9.00000E-002	1.41091E-003	7	...........	-327.66
	788	1.578	-8.08106E-002	4.22507E-006	0.00000E+000	-8.00000E-002	1.46781E-003	7	...........	-327.66
	789	1.58	-7.07399E-002	4.22308E-006	0.00000E+000	-7.00000E-002	1.48505E-003	7	...........	-327.66
	790	1.582	-6.07968E-002	4.21905E-006	0.00000E+000	-6.00000E-002	1.47471E-003	7	...........	-327.66
	791	1.584	-5.08184E-002	4.21565E-006	0.00000E+000	-5.00000E-002	1.47126E-003	7	...........	-327.66
	792	1.586	-4.07684E-002	4.21351E-006	0.00000E+000	-4.00000E-002	1.43505E-003	7	...........	-327.66
	793	1.588	-3.07865E-002	4.20979E-006	0.00000E+000	-3.00000E-002	1.45919E-003	7	...........	-327.66
	794	1.59	-2.07994E-002	4.20475E-006	0.00000E+000	-2.00000E-002	1.47988E-003	7	...........	-327.66
	795	1.592	-1.07882E-002	4.20232E-006	0.00000E+000	-1.00000E-002	1.40574E-003	7	...........	-327.66
	796	1.594	-8.00279E-004	4.19624E-006	0.00000E+000	-1.49012E-008	1.40057E-003	7	...........	-327.66
	797	1.596	9.23593E-003	4.19206E-006	0.00000E+000	9.99999E-003	1.38678E-003	7	...........	-327.66
	798	1.598	1.92342E-002	4.18608E-006	0.00000E+000	2.00000E-002	1.40919E-003	7	...........	-327.66
	799	1.6	2.91911E-002	4.17954E-006	0.00000E+000	3.00000E-002	1.42471E-003	7	...........	-327.66
	800	1.602	3.91816E-002	4.17403E-006	0.00000E+000	4.00000E-002	1.46264E-003	7	...........	-327.66
	801	1.604	4.92471E-002	4.16696E-006	0.00000E+000	5.00000E-002	1.39022E-003	7	...........	-327.66
	802	1.606	5.92221E-002	4.15940E-006	0.00000E+000	6.00000E-002	1.44022E-003	7	...........	-327.66
	803	1.608	6.92290E-002	4.15097E-006	0.00000E+000	7.00000E-002	1.50057E-003	7	...........	-327.66
	804	1.61	7.91963E-002	4.14233E-006	0.00000E+000	8.00000E-002	1.46953E-003	7	...........	-327.66
	805	1.612	8.92773E-002	4.13356E-006	0.00000E+000	9.00000E-002	1.46436E-003	7	...........	-327.66
	806	1.614	9.92195E-002	4.12485E-006	0.00000E+000	1.00000E-001	1.42988E-003	7	...........	-327.66
	807	1.616	1.09220E-001	4.11540E-006	0.00000E+000	1.10000E-001	1.36953E-003	7	...........	-327.66
	808	1.618	1.19239E-001	4.10541E-006	0.00000E+000	1.20000E-001	1.36436E-003	7	...........	-327.66
	809	1.62	1.29242E-001	4.09579E-006	0.00000E+000	1.30000E-001	1.44022E-003	7	...........	-327.66
	810	1.622	1.39257E-001	4.08565E-006	0.00000E+000	1.40000E-001	1.44367E-003	7	...........	-327.66
	811	1.624	1.49226E-001	4.07601E-006	0.00000E+000	1.50000E-001	1.41953E-003	7	...........	-327.66
	812	1.626	1.59202E-001	4.06603E-006	0.00000E+000	1.60000E-001	1.46609E-003	7	...........	-327.66
	813	1.628	1.69251E-001	4.05658E-006	0.00000E+000	1.70000E-001	1.43850E-003	7	...........	-327.66
	814	1.63	1.79212E-001	4.04616E-006	0.00000E+000	1.80000E-001	1.42643E-003	7	...........	-327.66
	815	1.632	1.89242E-001	4.03639E-006	0.00000E+000	1.90000E-001	1.40057E-003	7	...........	-327.66
	816	1.634	1.99226E-001	4.02682E-006	0.00000E+000	2.00000E-001	1.43333E-003	7	...........	-327.66
	817	1.636	2.09202E-001	4.01645E-006	0.00000E+000	2.10000E-001	1.39022E-003	7	...........	-327.66
	818	1.638	2.19187E-001	4.00656E-006	0.00000E+000	2.20000E-001	1.40402E-003	7	...........	-327.66
	819	1.64	2.29197E-001	3.99699E-006	0.00000E+000	2.30000E-001	1.44712E-003	7	...........	-327.66
	820	1.642	2.39198E-001	3.98840E-006	0.00000E+000	2.40000E-001	1.45747E-003	7	...........	-327.66
	821	1.644	2.49243E-001	3.97924E-006	0.00000E+000	2.50000E-001	1.45574E-003	7	...........	-327.66
	822	1.646	2.59177E-001	3.96927E-006	0.00000E+000	2.60000E-001	1.50229E-003	7	...........	-327.66
	823	1.648	2.69241E-001	3.96227E-006	0.00000E+000	2.70000E-001	1.46264E-003	7	...........	-327.66
	824	1.65	2.79168E-001	3.95420E-006	0.00000E+000	2.80000E-001	1.43850E-003	7	...........	-327.66
	825	1.652	2.89196E-001	3.94700E-006	0.00000E+000	2.90000E-001	1.45747E-003	7	...........	-327.66
	826	1.654	2.99208E-001	3.94018E-006	0.00000E+000	3.00000E-001	1.45747E-003	7	...........	-327.66
	827	1.656	3.09184E-001	3.93451E-006	0.00000E+000	3.10000E-001	1.45747E-003	7	...........	-327.66
	828	1.658	3.19181E-001	3.92861E-006	0.00000E+000	3.20000E-001	1.35574E-003	7	...........	-327.66
	829	1.66	3.29223E-001	3.92499E-006	0.00000E+000	3.30000E-001	1.40919E-003	7	...........	-327.66
	830	1.662	3.39177E-001	3.92099E-006	0.00000E+000	3.40000E-001	1.41609E-003	7	...........	-327.66
	831	1.664	3.49234E-001	3.91797E-006	0.00000E+000	3.50000E-001	1.43505E-003	7	...........	-327.66
	832	1.666	3.59189E-001	3.91661E-006	0.00000E+000	3.60000E-001	1.45229E-003	7	...........	-327.66
	833	1.668	3.69197E-001	3.91594E-006	0.00000E+000	3.70000E-001	1.49367E-003	7	...........	-327.66
	834	1.67	3.79195E-001	3.91509E-006	0.00000E+000	3.80000E-001	1.47298E-003	7	...........	-327.66
	835	1.672	3.89171E-001	3.91568E-006	0.00000E+000	3.90000E-001	1.45057E-003	7	...........	-327.66
	836	1.674	3.99192E-001	3.91713E-006	0.00000E+000	4.00000E-001	1.44712E-003	7	...........	-327.66
	837	1.676	4.09177E-001	3.92118E-006	0.00000E+000	4.10000E-001	1.38333E-003	7	...........	-327.66
	838	1.678	4.19212E-001	3.92503E-006	0.00000E+000	4.20000E-001	1.42471E-003	7	...........	-327.66
	839	1.68	4.29185E-001	3.92977E-006	0.00000E+000	4.30000E-001	1.47643E-003	7	...........	-327.66
	840	1.682	4.39151E-001	3.93603E-006	0.00000E+000	4.40000E-001	1.45747E-003	7	...........	-327.66
	841	1.684	4.49207E-001	3.94343E-006	0.00000E+000	4.50000E-001	1.46436E-003	7	...........	-327.66
	842	1.686	4.59195E-001	3.95182E-006	0.00000E+000	4.60000E-001	1.43850E-003	7	...........	-327.66
	843	1.688	4.69153E-001	3.96248E-006	0.00000E+000	4.70000E-001	1.40747E-003	7	...........	-327.66
	844	1.69	4.79172E-001	3.97262E-006	0.00000E+000	4.80000E-001	1.46781E-003	7	...........	-327.66
	845	1.692	4.89162E-001	3.98528E-006	0.00000E+000	4.90000E-001	1.43678E-003	7	...........	-327.66
	846	1.694	4.99197E-001	3.99928E-006	0.00000E+000	5.00000E-001	1.44195E-003	7	...........	-327.66
	847	1.696	5.09168E-001	4.01423E-006	0.00000E+000	5.10000E-001	1.39884E-003	7	...........	-327.66
	848	1.698	5.19163E-001	4.03101E-006	0.00000E+000	5.20000E-001	1.45057E-003	7	...........	-327.66
	849	1.7	5.29201E-001	4.04785E-006	0.00000E+000	5.30000E-001	1.46609E-003	7	...........	-327.66
	850	1.702	5.39178E-001	4.06643E-006	0.00000E+000	5.40000E-001	1.46609E-003	7	...........	-327.66
	851	1.704	5.49198E-001	4.08684E-006	0.00000E+000	5.50000E-001	1.37298E-003	7	...........	-327.66
	852	1.706	5.59176E-001	4.10778E-006	0.00000E+000	5.60000E-001	1.42126E-003	7	...........	-327.66
	853	1.708	5.69185E-001	4.12978E-006	0.00000E+000	5.70000E-001	1.48333E-003	7	...........	-327.66
	854	1.71	5.79179E-001	4.15385E-006	0.00000E+000	5.80000E-001	1.47471E-003	7	...........	-327.66
	855	1.712	5.89151E-001	4.17811E-006	0.00000E+000	5.90000E-001	1.45747E-003	7	...........	-327.66
	856	1.714	5.99179E-001	4.20322E-006	0.00000E+000	6.00000E-001	1.43505E-003	7	...........	-327.66
CURVE4	TABLE
	Pt	T	Vf	Im	Vu	Sig	Ach	IERange	Over	Temp
	#	s	V vs. Ref.	A	V	V	V	#	bits	deg C
	857	1.716	5.90738E-001	2.82103E-006	0.00000E+000	5.90000E-001	1.39540E-003	7	...........	-327.66
	858	1.718	5.80775E-001	2.06658E-006	0.00000E+000	5.80000E-001	1.41609E-003	7	...........	-327.66
	859	1.72	5.70748E-001	1.51575E-006	0.00000E+000	5.70000E-001	1.41781E-003	7	...........	-327.66
	860	1.722	5.60742E-001	1.06617E-006	0.00000E+000	5.60000E-001	1.40057E-003	7	...........	-327.66
	861	1.724	5.50776E-001	6.82205E-007	0.00000E+000	5.50000E-001	1.45402E-003	7	...........	-327.66
	862	1.726	5.40767E-001	3.46608E-007	0.00000E+000	5.40000E-001	1.39367E-003	7	...........	-327.66
	863	1.728	5.30789E-001	4.72051E-008	0.00000E+000	5.30000E-001	1.45057E-003	7	...........	-327.66
	864	1.73	5.20767E-001	-2.21952E-007	0.00000E+000	5.20000E-001	1.40919E-003	7	...........	-327.66
	865	1.732	5.10771E-001	-4.65830E-007	0.00000E+000	5.10000E-001	1.46609E-003	7	...........	-327.66
	866	1.734	5.00818E-001	-6.88464E-007	0.00000E+000	5.00000E-001	1.38333E-003	7	...........	-327.66
	867	1.736	4.90767E-001	-8.92406E-007	0.00000E+000	4.90000E-001	1.42126E-003	7	...........	-327.66
	868	1.738	4.80733E-001	-1.08172E-006	0.00000E+000	4.80000E-001	1.44540E-003	7	...........	-327.66
	869	1.74	4.70778E-001	-1.25449E-006	0.00000E+000	4.70000E-001	1.43333E-003	7	...........	-327.66
	870	1.742	4.60779E-001	-1.41494E-006	0.00000E+000	4.60000E-001	1.46953E-003	7	...........	-327.66
	871	1.744	4.50821E-001	-1.56529E-006	0.00000E+000	4.50000E-001	1.43850E-003	7	...........	-327.66
	872	1.746	4.40751E-001	-1.70472E-006	0.00000E+000	4.40000E-001	1.40057E-003	7	...........	-327.66
	873	1.748	4.30789E-001	-1.83421E-006	0.00000E+000	4.30000E-001	1.38333E-003	7	...........	-327.66
	874	1.75	4.20826E-001	-1.95655E-006	0.00000E+000	4.20000E-001	1.42471E-003	7	...........	-327.66
	875	1.752	4.10751E-001	-2.07019E-006	0.00000E+000	4.10000E-001	1.43505E-003	7	...........	-327.66
	876	1.754	4.00793E-001	-2.17813E-006	0.00000E+000	4.00000E-001	1.42643E-003	7	...........	-327.66
	877	1.756	3.90794E-001	-2.27920E-006	0.00000E+000	3.90000E-001	1.38850E-003	7	...........	-327.66
	878	1.758	3.80810E-001	-2.37478E-006	0.00000E+000	3.80000E-001	1.43678E-003	7	...........	-327.66
	879	1.76	3.70820E-001	-2.46434E-006	0.00000E+000	3.70000E-001	1.42298E-003	7	...........	-327.66
	880	1.762	3.60771E-001	-2.54965E-006	0.00000E+000	3.60000E-001	1.44712E-003	7	...........	-327.66
	881	1.764	3.50822E-001	-2.63080E-006	0.00000E+000	3.50000E-001	1.43333E-003	7	...........	-327.66
	882	1.766	3.40831E-001	-2.70677E-006	0.00000E+000	3.40000E-001	1.45919E-003	7	...........	-327.66
	883	1.768	3.30826E-001	-2.77971E-006	0.00000E+000	3.30000E-001	1.45574E-003	7	...........	-327.66
	884	1.77	3.20806E-001	-2.85016E-006	0.00000E+000	3.20000E-001	1.42815E-003	7	...........	-327.66
	885	1.772	3.10802E-001	-2.91694E-006	0.00000E+000	3.10000E-001	1.39540E-003	7	...........	-327.66
	886	1.774	3.00806E-001	-2.98143E-006	0.00000E+000	3.00000E-001	1.41264E-003	7	...........	-327.66
	887	1.776	2.90804E-001	-3.04220E-006	0.00000E+000	2.90000E-001	1.41436E-003	7	...........	-327.66
	888	1.778	2.80778E-001	-3.10014E-006	0.00000E+000	2.80000E-001	1.42471E-003	7	...........	-327.66
	889	1.78	2.70826E-001	-3.15665E-006	0.00000E+000	2.70000E-001	1.38333E-003	7	...........	-327.66
	890	1.782	2.60794E-001	-3.21210E-006	0.00000E+000	2.60000E-001	1.42471E-003	7	...........	-327.66
	891	1.784	2.50826E-001	-3.26299E-006	0.00000E+000	2.50000E-001	1.39367E-003	7	...........	-327.66
	892	1.786	2.40798E-001	-3.31410E-006	0.00000E+000	2.40000E-001	1.40574E-003	7	...........	-327.66
	893	1.788	2.30807E-001	-3.36307E-006	0.00000E+000	2.30000E-001	1.42471E-003	7	...........	-327.66
	894	1.79	2.20832E-001	-3.41137E-006	0.00000E+000	2.20000E-001	1.40057E-003	7	...........	-327.66
	895	1.792	2.10784E-001	-3.45812E-006	0.00000E+000	2.10000E-001	1.40402E-003	7	...........	-327.66
	896	1.794	2.00816E-001	-3.50261E-006	0.00000E+000	2.00000E-001	1.45919E-003	7	...........	-327.66
	897	1.796	1.90832E-001	-3.54527E-006	0.00000E+000	1.90000E-001	1.49712E-003	7	...........	-327.66
	898	1.798	1.80822E-001	-3.58793E-006	0.00000E+000	1.80000E-001	1.48505E-003	7	...........	-327.66
	899	1.8	1.70876E-001	-3.62942E-006	0.00000E+000	1.70000E-001	1.43850E-003	7	...........	-327.66
	900	1.802	1.60820E-001	-3.66934E-006	0.00000E+000	1.60000E-001	1.40402E-003	7	...........	-327.66
