EXPLAIN
TAG	CV
TITLE	LABEL	CV5000	Test Identifier
DATE	LABEL	5/9/2025	Date
TIME	LABEL	14:56:54	Time
NOTES	NOTES	1	Notes...
	
PSTAT	PSTAT	REF600P-43058	Potentiostat
VINIT	POTEN	0.00000E+000	T	Initial E (V)
VLIMIT1	POTEN	-9.00000E-001	F	Scan Limit 1 (V)
VLIMIT2	POTEN	6.00000E-001	F	Scan Limit 2 (V)
VFINAL	POTEN	0.00000E+000	T	Final E (V)
SCANRATE	QUANT	4.99999E+003	Scan Rate (mV/s)
STEPSIZE	QUANT	1.00000E+001	Step Size (mV)
CYCLES	IQUANT	3	Cycles (#)
IMODE	SELECTOR	1	I/E Range Mode
IRANGE	QUANT	1.00000E-002	Max Current (mA)
AREA	QUANT	1.00000E+000	Sample Area (cm^2)
EQDELAY	QUANT	5.00000E+000	Equil. Time (s)
IRCOMP	SELECTOR	0	IRComp
PFCOR	QUANT	5.00000E+001	PF Corr. (ohm)
SAMPLINGMODE	SELECTOR	2	Sampling Mode
EOC	QUANT	0.1683657	Open Circuit (V)
ELECTRODETYPE	SELECTOR	0	Electrode Type
STRIPPING	TOGGLE	F	Used for Stripping
SEQUENCER	TOGGLE	TRUE	Run as Sequence
PSTATMODEL	IQUANT	7	Pstat Model
PSTATSECTION	LABEL	REF600P-43058	Pstat Section
PSTATSERIALNO	LABEL	43058	Pstat Serial Number
CTRLMODE	IQUANT	1	Control Mode
ELECTROMETER	IQUANT	0	RE=0 or CS=1
IESTAB	IQUANT	2	I/E Stability
CASPEED	IQUANT	4	Control Amp Speed
CONVENTION	IQUANT	1	Current Convention
ICHRANGE	IQUANT	2	Ich Range
ICHRANGEMODE	TOGGLE	F	Ich Auto Range
ICHOFFSETENABLE	TOGGLE	F	Ich Offset Enable
ICHOFFSET	QUANT	0	Ich Offset (V)
ICHFILTER	IQUANT	2	Ich Filter
VCHRANGE	IQUANT	2	Vch Range
VCHRANGEMODE	TOGGLE	F	Vch Auto Range
VCHOFFSETENABLE	TOGGLE	F	Vch Offset Enable
VCHOFFSET	QUANT	0	Vch Offset (V)
VCHFILTER	IQUANT	2	Vch Filter
ACHRANGE	IQUANT	2	Ach Range
ACHOFFSETENABLE	TOGGLE	F	Ach Offset Enable
ACHOFFSET	QUANT	0	Ach Offset (V)
ACHFILTER	IQUANT	1	Ach Filter
IERANGELOWERLIMIT	IQUANT	1	I/E Range Lower Limit
IERANGEMODE	TOGGLE	F	I/E AutoRange
IERANGE	IQUANT	7	I/E Range
POSFEEDENABLE	TOGGLE	F	Positive Feedback IR Comp
POSFEEDRESISTANCE	QUANT	0	Positive Feedback Resistance (ohm)
ACHSELECT	IQUANT	4	Ach Select
SENSECABLEID	IQUANT	7	Sense Cable ID
PWRCABLEID	IQUANT	7	Power Cable ID
DCCALDATE	LABEL	5/8/2025	DC Calibration Date
ACCALDATE	LABEL	5/8/2025	AC Calibration Date
THERMOSELECT	IQUANT	1	Thermo Select
FRAMEWORKVERSION	LABEL	7.10.4	Framework Version
INSTRUMENTVERSION	LABEL	5.01	Instrument Version
COMMVERSION	LABEL	5.10	Communications Version
CPUPLDVERSION	LABEL	6.00	CPU PLD Version
CTRLPLDVERSION	LABEL	3.21	CTRL PLD Version
PSTATPLDVERSION	LABEL	0.00	PSTAT PLD Version
CURVE1	TABLE
	Pt	T	Vf	Im	Vu	Sig	Ach	IERange	Over	Temp
	#	s	V vs. Ref.	A	V	V	V	#	bits	deg C
	0	0.002	1.68536E-001	9.56205E-009	0.00000E+000	1.68350E-001	1.37471E-003	7	...........	-327.66
	1	0.004	1.59182E-001	-6.76514E-007	0.00000E+000	1.58350E-001	1.40229E-003	7	...........	-327.66
	2	0.006	1.49198E-001	-1.02653E-006	0.00000E+000	1.48350E-001	1.41091E-003	7	...........	-327.66
	3	0.008	1.39233E-001	-1.27775E-006	0.00000E+000	1.38350E-001	1.46781E-003	7	...........	-327.66
	4	0.01	1.29192E-001	-1.48281E-006	0.00000E+000	1.28350E-001	1.48505E-003	7	...........	-327.66
	5	0.012	1.19182E-001	-1.66165E-006	0.00000E+000	1.18350E-001	1.46436E-003	7	...........	-327.66
	6	0.014	1.09179E-001	-1.82160E-006	0.00000E+000	1.08350E-001	1.48333E-003	7	...........	-327.66
	7	0.016	9.91937E-002	-1.96793E-006	0.00000E+000	9.83500E-002	1.46091E-003	7	...........	-327.66
	8	0.018	8.91868E-002	-2.10269E-006	0.00000E+000	8.83500E-002	1.48160E-003	7	...........	-327.66
	9	0.02	7.91523E-002	-2.22881E-006	0.00000E+000	7.83500E-002	1.48678E-003	7	...........	-327.66
	10	0.022	6.91963E-002	-2.34802E-006	0.00000E+000	6.83500E-002	1.46609E-003	7	...........	-327.66
	11	0.024	5.92023E-002	-2.45967E-006	0.00000E+000	5.83500E-002	1.49540E-003	7	...........	-327.66
	12	0.026	4.92161E-002	-2.56588E-006	0.00000E+000	4.83500E-002	1.39712E-003	7	...........	-327.66
	13	0.028	3.92023E-002	-2.66925E-006	0.00000E+000	3.83500E-002	1.47815E-003	7	...........	-327.66
	14	0.03	2.91868E-002	-2.76494E-006	0.00000E+000	2.83500E-002	1.45229E-003	7	...........	-327.66
	15	0.032	1.91980E-002	-2.85836E-006	0.00000E+000	1.83500E-002	1.49884E-003	7	...........	-327.66
	16	0.034	9.18938E-003	-2.94820E-006	0.00000E+000	8.34998E-003	1.42815E-003	7	...........	-327.66
	17	0.036	-8.23555E-004	-3.03261E-006	0.00000E+000	-1.65001E-003	1.41609E-003	7	...........	-327.66
	18	0.038	-1.07442E-002	-3.11424E-006	0.00000E+000	-1.16500E-002	1.50574E-003	7	...........	-327.66
	19	0.04	-2.08011E-002	-3.19534E-006	0.00000E+000	-2.16500E-002	1.44367E-003	7	...........	-327.66
	20	0.042	-3.08210E-002	-3.27028E-006	0.00000E+000	-3.16500E-002	1.43333E-003	7	...........	-327.66
	21	0.044	-4.08201E-002	-3.34483E-006	0.00000E+000	-4.16500E-002	1.42126E-003	7	...........	-327.66
	22	0.046	-5.08253E-002	-3.41727E-006	0.00000E+000	-5.16500E-002	1.43505E-003	7	...........	-327.66
	23	0.048	-6.07718E-002	-3.48655E-006	0.00000E+000	-6.16500E-002	1.45057E-003	7	...........	-327.66
	24	0.05	-7.08287E-002	-3.55558E-006	0.00000E+000	-7.16500E-002	1.44884E-003	7	...........	-327.66
	25	0.052	-8.08486E-002	-3.61960E-006	0.00000E+000	-8.16500E-002	1.50919E-003	7	...........	-327.66
	26	0.054	-9.07994E-002	-3.68436E-006	0.00000E+000	-9.16500E-002	1.41609E-003	7	...........	-327.66
	27	0.056	-1.00823E-001	-3.74643E-006	0.00000E+000	-1.01650E-001	1.37988E-003	7	...........	-327.66
	28	0.058	-1.10807E-001	-3.80758E-006	0.00000E+000	-1.11650E-001	1.48160E-003	7	...........	-327.66
	29	0.06	-1.20821E-001	-3.86823E-006	0.00000E+000	-1.21650E-001	1.51436E-003	7	...........	-327.66
	30	0.062	-1.30830E-001	-3.92453E-006	0.00000E+000	-1.31650E-001	1.48160E-003	7	...........	-327.66
	31	0.064	-1.40759E-001	-3.98222E-006	0.00000E+000	-1.41650E-001	1.45747E-003	7	...........	-327.66
	32	0.066	-1.50834E-001	-4.03780E-006	0.00000E+000	-1.51650E-001	1.42815E-003	7	...........	-327.66
	33	0.068	-1.60824E-001	-4.09276E-006	0.00000E+000	-1.61650E-001	1.41953E-003	7	...........	-327.66
	34	0.07	-1.70793E-001	-4.14623E-006	0.00000E+000	-1.71650E-001	1.42643E-003	7	...........	-327.66
	35	0.072	-1.80817E-001	-4.19856E-006	0.00000E+000	-1.81650E-001	1.45229E-003	7	...........	-327.66
	36	0.074	-1.90777E-001	-4.25021E-006	0.00000E+000	-1.91650E-001	1.40057E-003	7	...........	-327.66
	37	0.076	-2.00850E-001	-4.30258E-006	0.00000E+000	-2.01650E-001	1.45229E-003	7	...........	-327.66
	38	0.078	-2.10804E-001	-4.35284E-006	0.00000E+000	-2.11650E-001	1.47643E-003	7	...........	-327.66
	39	0.08	-2.20754E-001	-4.40063E-006	0.00000E+000	-2.21650E-001	1.46264E-003	7	...........	-327.66
	40	0.082	-2.30806E-001	-4.44886E-006	0.00000E+000	-2.31650E-001	1.43505E-003	7	...........	-327.66
	41	0.084	-2.40751E-001	-4.49645E-006	0.00000E+000	-2.41650E-001	1.46781E-003	7	...........	-327.66
	42	0.086	-2.50780E-001	-4.54264E-006	0.00000E+000	-2.51650E-001	1.46091E-003	7	...........	-327.66
	43	0.088	-2.60803E-001	-4.58779E-006	0.00000E+000	-2.61650E-001	1.41781E-003	7	...........	-327.66
	44	0.09	-2.70756E-001	-4.63038E-006	0.00000E+000	-2.71650E-001	1.42815E-003	7	...........	-327.66
	45	0.092	-2.80802E-001	-4.67361E-006	0.00000E+000	-2.81650E-001	1.46781E-003	7	...........	-327.66
	46	0.094	-2.90706E-001	-4.71608E-006	0.00000E+000	-2.91650E-001	1.43678E-003	7	...........	-327.66
	47	0.096	-3.00770E-001	-4.75678E-006	0.00000E+000	-3.01650E-001	1.50574E-003	7	...........	-327.66
	48	0.098	-3.10800E-001	-4.79554E-006	0.00000E+000	-3.11650E-001	1.50747E-003	7	...........	-327.66
	49	0.1	-3.20750E-001	-4.83380E-006	0.00000E+000	-3.21650E-001	1.42815E-003	7	...........	-327.66
	50	0.102	-3.30804E-001	-4.87028E-006	0.00000E+000	-3.31650E-001	1.50229E-003	7	...........	-327.66
	51	0.104	-3.40792E-001	-4.90581E-006	0.00000E+000	-3.41650E-001	1.52988E-003	7	...........	-327.66
	52	0.106	-3.50787E-001	-4.93837E-006	0.00000E+000	-3.51650E-001	1.44712E-003	7	...........	-327.66
	53	0.108	-3.60823E-001	-4.97005E-006	0.00000E+000	-3.61650E-001	1.39540E-003	7	...........	-327.66
	54	0.11	-3.70752E-001	-5.00024E-006	0.00000E+000	-3.71650E-001	1.39022E-003	7	...........	-327.66
	55	0.112	-3.80783E-001	-5.02762E-006	0.00000E+000	-3.81650E-001	1.40919E-003	7	...........	-327.66
	56	0.114	-3.90818E-001	-5.05471E-006	0.00000E+000	-3.91650E-001	1.39712E-003	7	...........	-327.66
	57	0.116	-4.00790E-001	-5.07820E-006	0.00000E+000	-4.01650E-001	1.50574E-003	7	...........	-327.66
	58	0.118	-4.10771E-001	-5.10108E-006	0.00000E+000	-4.11650E-001	1.52471E-003	7	...........	-327.66
	59	0.12	-4.20748E-001	-5.12159E-006	0.00000E+000	-4.21650E-001	1.50057E-003	7	...........	-327.66
	60	0.122	-4.30781E-001	-5.13900E-006	0.00000E+000	-4.31650E-001	1.50919E-003	7	...........	-327.66
	61	0.124	-4.40797E-001	-5.15590E-006	0.00000E+000	-4.41650E-001	1.42815E-003	7	...........	-327.66
	62	0.126	-4.50740E-001	-5.16995E-006	0.00000E+000	-4.51650E-001	1.43505E-003	7	...........	-327.66
	63	0.128	-4.60777E-001	-5.18308E-006	0.00000E+000	-4.61650E-001	1.46436E-003	7	...........	-327.66
	64	0.13	-4.70672E-001	-5.19306E-006	0.00000E+000	-4.71650E-001	1.46091E-003	7	...........	-327.66
	65	0.132	-4.80772E-001	-5.20332E-006	0.00000E+000	-4.81650E-001	1.45229E-003	7	...........	-327.66
	66	0.134	-4.90778E-001	-5.20996E-006	0.00000E+000	-4.91650E-001	1.45402E-003	7	...........	-327.66
	67	0.136	-5.00717E-001	-5.21520E-006	0.00000E+000	-5.01650E-001	1.42815E-003	7	...........	-327.66
	68	0.138	-5.10772E-001	-5.21903E-006	0.00000E+000	-5.11650E-001	1.43505E-003	7	...........	-327.66
	69	0.14	-5.20819E-001	-5.22062E-006	0.00000E+000	-5.21650E-001	1.43160E-003	7	...........	-327.66
	70	0.142	-5.30774E-001	-5.22034E-006	0.00000E+000	-5.31650E-001	1.49022E-003	7	...........	-327.66
	71	0.144	-5.40787E-001	-5.21691E-006	0.00000E+000	-5.41650E-001	1.42126E-003	7	...........	-327.66
	72	0.146	-5.50738E-001	-5.21141E-006	0.00000E+000	-5.51650E-001	1.52643E-003	7	...........	-327.66
	73	0.148	-5.60798E-001	-5.20161E-006	0.00000E+000	-5.61650E-001	1.51781E-003	7	...........	-327.66
	74	0.15	-5.70780E-001	-5.18939E-006	0.00000E+000	-5.71650E-001	1.45402E-003	7	...........	-327.66
	75	0.152	-5.80755E-001	-5.17018E-006	0.00000E+000	-5.81650E-001	1.41953E-003	7	...........	-327.66
	76	0.154	-5.90768E-001	-5.14492E-006	0.00000E+000	-5.91650E-001	1.44195E-003	7	...........	-327.66
	77	0.156	-6.00793E-001	-5.11533E-006	0.00000E+000	-6.01650E-001	1.42643E-003	7	...........	-327.66
	78	0.158	-6.10784E-001	-5.07636E-006	0.00000E+000	-6.11650E-001	1.44195E-003	7	...........	-327.66
	79	0.16	-6.20749E-001	-5.02954E-006	0.00000E+000	-6.21650E-001	1.50057E-003	7	...........	-327.66
	80	0.162	-6.30715E-001	-4.96967E-006	0.00000E+000	-6.31650E-001	1.45747E-003	7	...........	-327.66
	81	0.164	-6.40766E-001	-4.89768E-006	0.00000E+000	-6.41650E-001	1.47643E-003	7	...........	-327.66
	82	0.166	-6.50635E-001	-4.81227E-006	0.00000E+000	-6.51650E-001	1.42988E-003	7	...........	-327.66
	83	0.168	-6.60728E-001	-4.71327E-006	0.00000E+000	-6.61650E-001	1.42126E-003	7	...........	-327.66
	84	0.17	-6.70676E-001	-4.59798E-006	0.00000E+000	-6.71650E-001	1.48160E-003	7	...........	-327.66
	85	0.172	-6.80702E-001	-4.46598E-006	0.00000E+000	-6.81650E-001	1.45057E-003	7	...........	-327.66
	86	0.174	-6.90769E-001	-4.31856E-006	0.00000E+000	-6.91650E-001	1.44195E-003	7	...........	-327.66
	87	0.176	-7.00718E-001	-4.15452E-006	0.00000E+000	-7.01650E-001	1.39884E-003	7	...........	-327.66
	88	0.178	-7.10776E-001	-3.97248E-006	0.00000E+000	-7.11650E-001	1.45229E-003	7	...........	-327.66
	89	0.18	-7.20792E-001	-3.78358E-006	0.00000E+000	-7.21650E-001	1.45574E-003	7	...........	-327.66
	90	0.182	-7.30726E-001	-3.58791E-006	0.00000E+000	-7.31650E-001	1.49367E-003	7	...........	-327.66
	91	0.184	-7.40771E-001	-3.38107E-006	0.00000E+000	-7.41650E-001	1.44712E-003	7	...........	-327.66
	92	0.186	-7.50733E-001	-3.17308E-006	0.00000E+000	-7.51650E-001	1.40747E-003	7	...........	-327.66
	93	0.188	-7.60747E-001	-2.96353E-006	0.00000E+000	-7.61650E-001	1.47126E-003	7	...........	-327.66
	94	0.19	-7.70765E-001	-2.75609E-006	0.00000E+000	-7.71650E-001	1.49540E-003	7	...........	-327.66
	95	0.192	-7.80688E-001	-2.55915E-006	0.00000E+000	-7.81650E-001	1.49367E-003	7	...........	-327.66
	96	0.194	-7.90745E-001	-2.37145E-006	0.00000E+000	-7.91650E-001	1.38850E-003	7	...........	-327.66
	97	0.196	-8.00785E-001	-2.19877E-006	0.00000E+000	-8.01650E-001	1.40057E-003	7	...........	-327.66
	98	0.198	-8.10742E-001	-2.03551E-006	0.00000E+000	-8.11650E-001	1.39195E-003	7	...........	-327.66
	99	0.2	-8.20777E-001	-1.88001E-006	0.00000E+000	-8.21650E-001	1.42298E-003	7	...........	-327.66
	100	0.202	-8.30719E-001	-1.74583E-006	0.00000E+000	-8.31650E-001	1.50057E-003	7	...........	-327.66
	101	0.204	-8.40785E-001	-1.62676E-006	0.00000E+000	-8.41650E-001	1.49195E-003	7	...........	-327.66
	102	0.206	-8.50735E-001	-1.52127E-006	0.00000E+000	-8.51650E-001	1.51436E-003	7	...........	-327.66
	103	0.208	-8.60704E-001	-1.43012E-006	0.00000E+000	-8.61650E-001	1.50229E-003	7	...........	-327.66
	104	0.21	-8.70769E-001	-1.34981E-006	0.00000E+000	-8.71650E-001	1.41436E-003	7	...........	-327.66
	105	0.212	-8.80744E-001	-1.27965E-006	0.00000E+000	-8.81650E-001	1.47988E-003	7	...........	-327.66
	106	0.214	-8.90793E-001	-1.21274E-006	0.00000E+000	-8.91650E-001	1.43505E-003	7	...........	-327.66
	107	0.216	-9.00795E-001	-1.15682E-006	0.00000E+000	-9.01650E-001	1.46609E-003	7	...........	-327.66
	108	0.218	-8.92367E-001	-1.01401E-006	0.00000E+000	-8.91650E-001	1.47298E-003	7	...........	-327.66
	109	0.22	-8.82293E-001	-9.06494E-007	0.00000E+000	-8.81650E-001	1.49540E-003	7	...........	-327.66
	110	0.222	-8.72344E-001	-8.25121E-007	0.00000E+000	-8.71650E-001	1.43505E-003	7	...........	-327.66
	111	0.224	-8.62362E-001	-7.57767E-007	0.00000E+000	-8.61650E-001	1.44195E-003	7	...........	-327.66
	112	0.226	-8.52356E-001	-6.98965E-007	0.00000E+000	-8.51650E-001	1.41091E-003	7	...........	-327.66
	113	0.228	-8.42348E-001	-6.47838E-007	0.00000E+000	-8.41650E-001	1.47298E-003	7	...........	-327.66
	114	0.23	-8.32175E-001	-6.01539E-007	0.00000E+000	-8.31650E-001	1.52298E-003	7	...........	-327.66
	115	0.232	-8.22306E-001	-5.56722E-007	0.00000E+000	-8.21650E-001	1.48678E-003	7	...........	-327.66
	116	0.234	-8.12324E-001	-5.12561E-007	0.00000E+000	-8.11650E-001	1.51609E-003	7	...........	-327.66
	117	0.236	-8.02365E-001	-4.70900E-007	0.00000E+000	-8.01650E-001	1.46781E-003	7	...........	-327.66
	118	0.238	-7.92328E-001	-4.28463E-007	0.00000E+000	-7.91650E-001	1.38333E-003	7	...........	-327.66
	119	0.24	-7.82277E-001	-3.86199E-007	0.00000E+000	-7.81650E-001	1.43160E-003	7	...........	-327.66
	120	0.242	-7.72315E-001	-3.41900E-007	0.00000E+000	-7.71650E-001	1.45057E-003	7	...........	-327.66
	121	0.244	-7.62283E-001	-2.96031E-007	0.00000E+000	-7.61650E-001	1.42643E-003	7	...........	-327.66
	122	0.246	-7.52280E-001	-2.46266E-007	0.00000E+000	-7.51650E-001	1.42298E-003	7	...........	-327.66
	123	0.248	-7.42368E-001	-1.92293E-007	0.00000E+000	-7.41650E-001	1.43850E-003	7	...........	-327.66
	124	0.25	-7.32338E-001	-1.34630E-007	0.00000E+000	-7.31650E-001	1.48850E-003	7	...........	-327.66
	125	0.252	-7.22356E-001	-7.10869E-008	0.00000E+000	-7.21650E-001	1.44712E-003	7	...........	-327.66
	126	0.254	-7.12366E-001	-1.85330E-009	0.00000E+000	-7.11650E-001	1.42988E-003	7	...........	-327.66
	127	0.256	-7.02348E-001	7.45537E-008	0.00000E+000	-7.01650E-001	1.45919E-003	7	...........	-327.66
	128	0.258	-6.92365E-001	1.60083E-007	0.00000E+000	-6.91650E-001	1.51781E-003	7	...........	-327.66
	129	0.26	-6.82386E-001	2.51216E-007	0.00000E+000	-6.81650E-001	1.50919E-003	7	...........	-327.66
	130	0.262	-6.72311E-001	3.53661E-007	0.00000E+000	-6.71650E-001	1.51436E-003	7	...........	-327.66
	131	0.264	-6.62362E-001	4.65935E-007	0.00000E+000	-6.61650E-001	1.44022E-003	7	...........	-327.66
	132	0.266	-6.52336E-001	5.91072E-007	0.00000E+000	-6.51650E-001	1.47643E-003	7	...........	-327.66
	133	0.268	-6.42363E-001	7.28746E-007	0.00000E+000	-6.41650E-001	1.42643E-003	7	...........	-327.66
	134	0.27	-6.32350E-001	8.83198E-007	0.00000E+000	-6.31650E-001	1.43850E-003	7	...........	-327.66
	135	0.272	-6.22378E-001	1.05113E-006	0.00000E+000	-6.21650E-001	1.42471E-003	7	...........	-327.66
	136	0.274	-6.12392E-001	1.23694E-006	0.00000E+000	-6.11650E-001	1.45402E-003	7	...........	-327.66
	137	0.276	-6.02390E-001	1.43845E-006	0.00000E+000	-6.01650E-001	1.47815E-003	7	...........	-327.66
	138	0.278	-5.92367E-001	1.66058E-006	0.00000E+000	-5.91650E-001	1.44884E-003	7	...........	-327.66
	139	0.28	-5.82391E-001	1.90196E-006	0.00000E+000	-5.81650E-001	1.44195E-003	7	...........	-327.66
	140	0.282	-5.72365E-001	2.16323E-006	0.00000E+000	-5.71650E-001	1.50402E-003	7	...........	-327.66
	141	0.284	-5.62417E-001	2.45026E-006	0.00000E+000	-5.61650E-001	1.48333E-003	7	...........	-327.66
	142	0.286	-5.52371E-001	2.75226E-006	0.00000E+000	-5.51650E-001	1.47298E-003	7	...........	-327.66
	143	0.288	-5.42397E-001	3.07155E-006	0.00000E+000	-5.41650E-001	1.45402E-003	7	...........	-327.66
	144	0.29	-5.32407E-001	3.40959E-006	0.00000E+000	-5.31650E-001	1.43505E-003	7	...........	-327.66
	145	0.292	-5.22393E-001	3.74811E-006	0.00000E+000	-5.21650E-001	1.48850E-003	7	...........	-327.66
	146	0.294	-5.12411E-001	4.08876E-006	0.00000E+000	-5.11650E-001	1.51953E-003	7	...........	-327.66
	147	0.296	-5.02377E-001	4.41258E-006	0.00000E+000	-5.01650E-001	1.47643E-003	7	...........	-327.66
	148	0.298	-4.92401E-001	4.70824E-006	0.00000E+000	-4.91650E-001	1.38678E-003	7	...........	-327.66
	149	0.3	-4.82416E-001	4.95986E-006	0.00000E+000	-4.81650E-001	1.46953E-003	7	...........	-327.66
	150	0.302	-4.72343E-001	5.16432E-006	0.00000E+000	-4.71650E-001	1.45919E-003	7	...........	-327.66
	151	0.304	-4.62405E-001	5.30625E-006	0.00000E+000	-4.61650E-001	1.43333E-003	7	...........	-327.66
	152	0.306	-4.52411E-001	5.39023E-006	0.00000E+000	-4.51650E-001	1.49367E-003	7	...........	-327.66
	153	0.308	-4.42399E-001	5.42102E-006	0.00000E+000	-4.41650E-001	1.43505E-003	7	...........	-327.66
	154	0.31	-4.32406E-001	5.40416E-006	0.00000E+000	-4.31650E-001	1.45747E-003	7	...........	-327.66
	155	0.312	-4.22348E-001	5.35555E-006	0.00000E+000	-4.21650E-001	1.41953E-003	7	...........	-327.66
	156	0.314	-4.12397E-001	5.28592E-006	0.00000E+000	-4.11650E-001	1.43333E-003	7	...........	-327.66
	157	0.316	-4.02429E-001	5.20712E-006	0.00000E+000	-4.01650E-001	1.41091E-003	7	...........	-327.66
	158	0.318	-3.92418E-001	5.12169E-006	0.00000E+000	-3.91650E-001	1.38678E-003	7	...........	-327.66
	159	0.32	-3.82423E-001	5.03732E-006	0.00000E+000	-3.81650E-001	1.44022E-003	7	...........	-327.66
	160	0.322	-3.72424E-001	4.95717E-006	0.00000E+000	-3.71650E-001	1.45229E-003	7	...........	-327.66
	161	0.324	-3.62402E-001	4.88443E-006	0.00000E+000	-3.61650E-001	1.41781E-003	7	...........	-327.66
	162	0.326	-3.52422E-001	4.81748E-006	0.00000E+000	-3.51650E-001	1.40402E-003	7	...........	-327.66
	163	0.328	-3.42411E-001	4.75752E-006	0.00000E+000	-3.41650E-001	1.41436E-003	7	...........	-327.66
	164	0.33	-3.32441E-001	4.70855E-006	0.00000E+000	-3.31650E-001	1.46953E-003	7	...........	-327.66
	165	0.332	-3.22400E-001	4.66447E-006	0.00000E+000	-3.21650E-001	1.52815E-003	7	...........	-327.66
	166	0.334	-3.12430E-001	4.62754E-006	0.00000E+000	-3.11650E-001	1.42471E-003	7	...........	-327.66
	167	0.336	-3.02405E-001	4.59520E-006	0.00000E+000	-3.01650E-001	1.42126E-003	7	...........	-327.66
	168	0.338	-2.92390E-001	4.56851E-006	0.00000E+000	-2.91650E-001	1.39367E-003	7	...........	-327.66
	169	0.34	-2.82441E-001	4.54590E-006	0.00000E+000	-2.81650E-001	1.50402E-003	7	...........	-327.66
	170	0.342	-2.72391E-001	4.52516E-006	0.00000E+000	-2.71650E-001	1.47643E-003	7	...........	-327.66
	171	0.344	-2.62399E-001	4.50902E-006	0.00000E+000	-2.61650E-001	1.49540E-003	7	...........	-327.66
	172	0.346	-2.52426E-001	4.49559E-006	0.00000E+000	-2.51650E-001	1.44712E-003	7	...........	-327.66
	173	0.348	-2.42409E-001	4.48331E-006	0.00000E+000	-2.41650E-001	1.51436E-003	7	...........	-327.66
	174	0.35	-2.32420E-001	4.47295E-006	0.00000E+000	-2.31650E-001	1.42988E-003	7	...........	-327.66
	175	0.352	-2.22386E-001	4.46313E-006	0.00000E+000	-2.21650E-001	1.45402E-003	7	...........	-327.66
	176	0.354	-2.12408E-001	4.45353E-006	0.00000E+000	-2.11650E-001	1.44540E-003	7	...........	-327.66
	177	0.356	-2.02452E-001	4.44555E-006	0.00000E+000	-2.01650E-001	1.47815E-003	7	...........	-327.66
	178	0.358	-1.92450E-001	4.43637E-006	0.00000E+000	-1.91650E-001	1.47471E-003	7	...........	-327.66
	179	0.36	-1.82422E-001	4.42697E-006	0.00000E+000	-1.81650E-001	1.41436E-003	7	...........	-327.66
	180	0.362	-1.72449E-001	4.41842E-006	0.00000E+000	-1.71650E-001	1.40574E-003	7	...........	-327.66
	181	0.364	-1.62437E-001	4.40894E-006	0.00000E+000	-1.61650E-001	1.44540E-003	7	...........	-327.66
	182	0.366	-1.52449E-001	4.40223E-006	0.00000E+000	-1.51650E-001	1.49884E-003	7	...........	-327.66
	183	0.368	-1.42402E-001	4.39480E-006	0.00000E+000	-1.41650E-001	1.43505E-003	7	...........	-327.66
	184	0.37	-1.32465E-001	4.38804E-006	0.00000E+000	-1.31650E-001	1.45402E-003	7	...........	-327.66
	185	0.372	-1.22451E-001	4.38150E-006	0.00000E+000	-1.21650E-001	1.43160E-003	7	...........	-327.66
	186	0.374	-1.12430E-001	4.37583E-006	0.00000E+000	-1.11650E-001	1.44712E-003	7	...........	-327.66
	187	0.376	-1.02418E-001	4.36985E-006	0.00000E+000	-1.01650E-001	1.42126E-003	7	...........	-327.66
	188	0.378	-9.24451E-002	4.36464E-006	0.00000E+000	-9.16500E-002	1.42815E-003	7	...........	-327.66
	189	0.38	-8.24529E-002	4.35922E-006	0.00000E+000	-8.16500E-002	1.50747E-003	7	...........	-327.66
	190	0.382	-7.24701E-002	4.35314E-006	0.00000E+000	-7.16500E-002	1.46953E-003	7	...........	-327.66
	191	0.384	-6.24123E-002	4.34833E-006	0.00000E+000	-6.16500E-002	1.43678E-003	7	...........	-327.66
	192	0.386	-5.24468E-002	4.34095E-006	0.00000E+000	-5.16500E-002	1.51091E-003	7	...........	-327.66
	193	0.388	-4.24279E-002	4.33698E-006	0.00000E+000	-4.16500E-002	1.49540E-003	7	...........	-327.66
	194	0.39	-3.24365E-002	4.32889E-006	0.00000E+000	-3.16500E-002	1.40574E-003	7	...........	-327.66
	195	0.392	-2.24322E-002	4.32189E-006	0.00000E+000	-2.16500E-002	1.39022E-003	7	...........	-327.66
	196	0.394	-1.24210E-002	4.31523E-006	0.00000E+000	-1.16500E-002	1.44712E-003	7	...........	-327.66
	197	0.396	-2.44942E-003	4.30689E-006	0.00000E+000	-1.65001E-003	1.47126E-003	7	...........	-327.66
	198	0.398	7.59455E-003	4.29934E-006	0.00000E+000	8.34998E-003	1.52815E-003	7	...........	-327.66
	199	0.4	1.76032E-002	4.28949E-006	0.00000E+000	1.83500E-002	1.42298E-003	7	...........	-327.66
	200	0.402	2.75652E-002	4.28040E-006	0.00000E+000	2.83500E-002	1.46781E-003	7	...........	-327.66
	201	0.404	3.75980E-002	4.27168E-006	0.00000E+000	3.83500E-002	1.45229E-003	7	...........	-327.66
	202	0.406	4.75756E-002	4.26171E-006	0.00000E+000	4.83500E-002	1.48678E-003	7	...........	-327.66
	203	0.408	5.75730E-002	4.25116E-006	0.00000E+000	5.83500E-002	1.50402E-003	7	...........	-327.66
	204	0.41	6.75980E-002	4.24024E-006	0.00000E+000	6.83500E-002	1.50402E-003	7	...........	-327.66
	205	0.412	7.75626E-002	4.22929E-006	0.00000E+000	7.83500E-002	1.43333E-003	7	...........	-327.66
	206	0.414	8.75894E-002	4.21738E-006	0.00000E+000	8.83500E-002	1.47126E-003	7	...........	-327.66
	207	0.416	9.75816E-002	4.20510E-006	0.00000E+000	9.83500E-002	1.46781E-003	7	...........	-327.66
	208	0.418	1.07575E-001	4.19222E-006	0.00000E+000	1.08350E-001	1.50574E-003	7	...........	-327.66
	209	0.42	1.17605E-001	4.18032E-006	0.00000E+000	1.18350E-001	1.44022E-003	7	...........	-327.66
	210	0.422	1.27570E-001	4.16770E-006	0.00000E+000	1.28350E-001	1.44195E-003	7	...........	-327.66
	211	0.424	1.37608E-001	4.15447E-006	0.00000E+000	1.38350E-001	1.48160E-003	7	...........	-327.66
	212	0.426	1.47577E-001	4.14080E-006	0.00000E+000	1.48350E-001	1.42815E-003	7	...........	-327.66
	213	0.428	1.57558E-001	4.12854E-006	0.00000E+000	1.58350E-001	1.47643E-003	7	...........	-327.66
	214	0.43	1.67617E-001	4.11626E-006	0.00000E+000	1.68350E-001	1.44022E-003	7	...........	-327.66
	215	0.432	1.77583E-001	4.10165E-006	0.00000E+000	1.78350E-001	1.43505E-003	7	...........	-327.66
	216	0.434	1.87581E-001	4.08831E-006	0.00000E+000	1.88350E-001	1.46609E-003	7	...........	-327.66
	217	0.436	1.97586E-001	4.07500E-006	0.00000E+000	1.98350E-001	1.49540E-003	7	...........	-327.66
	218	0.438	2.07565E-001	4.06292E-006	0.00000E+000	2.08350E-001	1.48333E-003	7	...........	-327.66
	219	0.44	2.17598E-001	4.04906E-006	0.00000E+000	2.18350E-001	1.46436E-003	7	...........	-327.66
	220	0.442	2.27570E-001	4.03680E-006	0.00000E+000	2.28350E-001	1.48333E-003	7	...........	-327.66
	221	0.444	2.37553E-001	4.02366E-006	0.00000E+000	2.38350E-001	1.45057E-003	7	...........	-327.66
	222	0.446	2.47542E-001	4.01125E-006	0.00000E+000	2.48350E-001	1.44022E-003	7	...........	-327.66
	223	0.448	2.57557E-001	3.99886E-006	0.00000E+000	2.58350E-001	1.40747E-003	7	...........	-327.66
	224	0.45	2.67545E-001	3.98702E-006	0.00000E+000	2.68350E-001	1.44195E-003	7	...........	-327.66
	225	0.452	2.77540E-001	3.97595E-006	0.00000E+000	2.78350E-001	1.49712E-003	7	...........	-327.66
	226	0.454	2.87541E-001	3.96508E-006	0.00000E+000	2.88350E-001	1.39884E-003	7	...........	-327.66
	227	0.456	2.97571E-001	3.95520E-006	0.00000E+000	2.98350E-001	1.50402E-003	7	...........	-327.66
	228	0.458	3.07535E-001	3.94625E-006	0.00000E+000	3.08350E-001	1.43333E-003	7	...........	-327.66
	229	0.46	3.17549E-001	3.93744E-006	0.00000E+000	3.18350E-001	1.45919E-003	7	...........	-327.66
	230	0.462	3.27545E-001	3.93001E-006	0.00000E+000	3.28350E-001	1.39367E-003	7	...........	-327.66
	231	0.464	3.37570E-001	3.92237E-006	0.00000E+000	3.38350E-001	1.41781E-003	7	...........	-327.66
	232	0.466	3.47539E-001	3.91661E-006	0.00000E+000	3.48350E-001	1.40229E-003	7	...........	-327.66
	233	0.468	3.57553E-001	3.91192E-006	0.00000E+000	3.58350E-001	1.38678E-003	7	...........	-327.66
	234	0.47	3.67567E-001	3.90802E-006	0.00000E+000	3.68350E-001	1.41264E-003	7	...........	-327.66
	235	0.472	3.77556E-001	3.90527E-006	0.00000E+000	3.78350E-001	1.43850E-003	7	...........	-327.66
	236	0.474	3.87513E-001	3.90313E-006	0.00000E+000	3.88350E-001	1.39540E-003	7	...........	-327.66
	237	0.476	3.97550E-001	3.90294E-006	0.00000E+000	3.98350E-001	1.41091E-003	7	...........	-327.66
	238	0.478	4.07544E-001	3.90432E-006	0.00000E+000	4.08350E-001	1.54884E-003	7	...........	-327.66
	239	0.48	4.17535E-001	3.90523E-006	0.00000E+000	4.18350E-001	1.44367E-003	7	...........	-327.66
	240	0.482	4.27546E-001	3.90782E-006	0.00000E+000	4.28350E-001	1.52126E-003	7	...........	-327.66
	241	0.484	4.37532E-001	3.91285E-006	0.00000E+000	4.38350E-001	1.44712E-003	7	...........	-327.66
	242	0.486	4.47560E-001	3.91803E-006	0.00000E+000	4.48350E-001	1.48505E-003	7	...........	-327.66
	243	0.488	4.57555E-001	3.92460E-006	0.00000E+000	4.58350E-001	1.50574E-003	7	...........	-327.66
	244	0.49	4.67484E-001	3.93318E-006	0.00000E+000	4.68350E-001	1.41953E-003	7	...........	-327.66
	245	0.492	4.77532E-001	3.94122E-006	0.00000E+000	4.78350E-001	1.52126E-003	7	...........	-327.66
	246	0.494	4.87531E-001	3.95013E-006	0.00000E+000	4.88350E-001	1.47643E-003	7	...........	-327.66
	247	0.496	4.97553E-001	3.96050E-006	0.00000E+000	4.98350E-001	1.47126E-003	7	...........	-327.66
	248	0.498	5.07522E-001	3.97140E-006	0.00000E+000	5.08350E-001	1.41436E-003	7	...........	-327.66
	249	0.5	5.17507E-001	3.98429E-006	0.00000E+000	5.18350E-001	1.38333E-003	7	...........	-327.66
	250	0.502	5.27549E-001	3.99930E-006	0.00000E+000	5.28350E-001	1.43505E-003	7	...........	-327.66
	251	0.504	5.37555E-001	4.01533E-006	0.00000E+000	5.38350E-001	1.44367E-003	7	...........	-327.66
	252	0.506	5.47543E-001	4.03328E-006	0.00000E+000	5.48350E-001	1.46091E-003	7	...........	-327.66
	253	0.508	5.57557E-001	4.05229E-006	0.00000E+000	5.58350E-001	1.46436E-003	7	...........	-327.66
	254	0.51	5.67514E-001	4.07355E-006	0.00000E+000	5.68350E-001	1.42643E-003	7	...........	-327.66
	255	0.512	5.77551E-001	4.09629E-006	0.00000E+000	5.78350E-001	1.39195E-003	7	...........	-327.66
	256	0.514	5.87514E-001	4.12031E-006	0.00000E+000	5.88350E-001	1.44367E-003	7	...........	-327.66
	257	0.516	5.97527E-001	4.14763E-006	0.00000E+000	5.98350E-001	1.43850E-003	7	...........	-327.66
CURVE2	TABLE
	Pt	T	Vf	Im	Vu	Sig	Ach	IERange	Over	Temp
	#	s	V vs. Ref.	A	V	V	V	#	bits	deg C
	258	0.518	5.90620E-001	2.91498E-006	0.00000E+000	5.90000E-001	1.42298E-003	7	...........	-327.66
	259	0.52	5.80761E-001	2.14696E-006	0.00000E+000	5.80000E-001	1.43333E-003	7	...........	-327.66
	260	0.522	5.70736E-001	1.61328E-006	0.00000E+000	5.70000E-001	1.39540E-003	7	...........	-327.66
	261	0.524	5.60768E-001	1.18241E-006	0.00000E+000	5.60000E-001	1.43678E-003	7	...........	-327.66
	262	0.526	5.50768E-001	8.16862E-007	0.00000E+000	5.50000E-001	1.41264E-003	7	...........	-327.66
	263	0.528	5.40770E-001	4.96042E-007	0.00000E+000	5.40000E-001	1.49540E-003	7	...........	-327.66
	264	0.53	5.30777E-001	2.09055E-007	0.00000E+000	5.30000E-001	1.51091E-003	7	...........	-327.66
	265	0.532	5.20763E-001	-4.99633E-008	0.00000E+000	5.20000E-001	1.49540E-003	7	...........	-327.66
	266	0.534	5.10758E-001	-2.86306E-007	0.00000E+000	5.10000E-001	1.46953E-003	7	...........	-327.66
	267	0.536	5.00815E-001	-5.03284E-007	0.00000E+000	5.00000E-001	1.41781E-003	7	...........	-327.66
	268	0.538	4.90761E-001	-7.01725E-007	0.00000E+000	4.90000E-001	1.38505E-003	7	...........	-327.66
	269	0.54	4.80763E-001	-8.86750E-007	0.00000E+000	4.80000E-001	1.37988E-003	7	...........	-327.66
	270	0.542	4.70801E-001	-1.05757E-006	0.00000E+000	4.70000E-001	1.44195E-003	7	...........	-327.66
	271	0.544	4.60779E-001	-1.21790E-006	0.00000E+000	4.60000E-001	1.46781E-003	7	...........	-327.66
	272	0.546	4.50820E-001	-1.36659E-006	0.00000E+000	4.50000E-001	1.41091E-003	7	...........	-327.66
	273	0.548	4.40758E-001	-1.50687E-006	0.00000E+000	4.40000E-001	1.50057E-003	7	...........	-327.66
	274	0.55	4.30796E-001	-1.63821E-006	0.00000E+000	4.30000E-001	1.45919E-003	7	...........	-327.66
	275	0.552	4.20799E-001	-1.76080E-006	0.00000E+000	4.20000E-001	1.39022E-003	7	...........	-327.66
	276	0.554	4.10783E-001	-1.87656E-006	0.00000E+000	4.10000E-001	1.40919E-003	7	...........	-327.66
	277	0.556	4.00785E-001	-1.98704E-006	0.00000E+000	4.00000E-001	1.43850E-003	7	...........	-327.66
	278	0.558	3.90788E-001	-2.09029E-006	0.00000E+000	3.90000E-001	1.47815E-003	7	...........	-327.66
	279	0.56	3.80801E-001	-2.18839E-006	0.00000E+000	3.80000E-001	1.52988E-003	7	...........	-327.66
	280	0.562	3.70832E-001	-2.28127E-006	0.00000E+000	3.70000E-001	1.48678E-003	7	...........	-327.66
	281	0.564	3.60783E-001	-2.37075E-006	0.00000E+000	3.60000E-001	1.50402E-003	7	...........	-327.66
	282	0.566	3.50806E-001	-2.45600E-006	0.00000E+000	3.50000E-001	1.41609E-003	7	...........	-327.66
	283	0.568	3.40821E-001	-2.53637E-006	0.00000E+000	3.40000E-001	1.47988E-003	7	...........	-327.66
	284	0.57	3.30807E-001	-2.61250E-006	0.00000E+000	3.30000E-001	1.39540E-003	7	...........	-327.66
	285	0.572	3.20796E-001	-2.68796E-006	0.00000E+000	3.20000E-001	1.47815E-003	7	...........	-327.66
	286	0.574	3.10805E-001	-2.75768E-006	0.00000E+000	3.10000E-001	1.47298E-003	7	...........	-327.66
	287	0.576	3.00808E-001	-2.82755E-006	0.00000E+000	3.00000E-001	1.46609E-003	7	...........	-327.66
	288	0.578	2.90785E-001	-2.89261E-006	0.00000E+000	2.90000E-001	1.42298E-003	7	...........	-327.66
	289	0.58	2.80787E-001	-2.95626E-006	0.00000E+000	2.80000E-001	1.41953E-003	7	...........	-327.66
	290	0.582	2.70842E-001	-3.01826E-006	0.00000E+000	2.70000E-001	1.45574E-003	7	...........	-327.66
	291	0.584	2.60787E-001	-3.07877E-006	0.00000E+000	2.60000E-001	1.44540E-003	7	...........	-327.66
	292	0.586	2.50856E-001	-3.13404E-006	0.00000E+000	2.50000E-001	1.50402E-003	7	...........	-327.66
	293	0.588	2.40798E-001	-3.19068E-006	0.00000E+000	2.40000E-001	1.45919E-003	7	...........	-327.66
	294	0.59	2.30810E-001	-3.24524E-006	0.00000E+000	2.30000E-001	1.40402E-003	7	...........	-327.66
	295	0.592	2.20820E-001	-3.29968E-006	0.00000E+000	2.20000E-001	1.43850E-003	7	...........	-327.66
	296	0.594	2.10805E-001	-3.35114E-006	0.00000E+000	2.10000E-001	1.47126E-003	7	...........	-327.66
	297	0.596	2.00822E-001	-3.40173E-006	0.00000E+000	2.00000E-001	1.44195E-003	7	...........	-327.66
	298	0.598	1.90858E-001	-3.45186E-006	0.00000E+000	1.90000E-001	1.44195E-003	7	...........	-327.66
	299	0.6	1.80829E-001	-3.50023E-006	0.00000E+000	1.80000E-001	1.46264E-003	7	...........	-327.66
	300	0.602	1.70857E-001	-3.54666E-006	0.00000E+000	1.70000E-001	1.39022E-003	7	...........	-327.66
	301	0.604	1.60817E-001	-3.59414E-006	0.00000E+000	1.60000E-001	1.42643E-003	7	...........	-327.66
	302	0.606	1.50835E-001	-3.63819E-006	0.00000E+000	1.50000E-001	1.50747E-003	7	...........	-327.66
	303	0.608	1.40882E-001	-3.68320E-006	0.00000E+000	1.40000E-001	1.43333E-003	7	...........	-327.66
	304	0.61	1.30836E-001	-3.72579E-006	0.00000E+000	1.30000E-001	1.45574E-003	7	...........	-327.66
	305	0.612	1.20814E-001	-3.76885E-006	0.00000E+000	1.20000E-001	1.42298E-003	7	...........	-327.66
	306	0.614	1.10830E-001	-3.81036E-006	0.00000E+000	1.10000E-001	1.40402E-003	7	...........	-327.66
	307	0.616	1.00821E-001	-3.85169E-006	0.00000E+000	1.00000E-001	1.50747E-003	7	...........	-327.66
	308	0.618	9.08894E-002	-3.89059E-006	0.00000E+000	9.00000E-002	1.46953E-003	7	...........	-327.66
	309	0.62	8.07963E-002	-3.92956E-006	0.00000E+000	8.00000E-002	1.45574E-003	7	...........	-327.66
	310	0.622	7.08351E-002	-3.96779E-006	0.00000E+000	7.00000E-002	1.47126E-003	7	...........	-327.66
	311	0.624	6.08351E-002	-4.00442E-006	0.00000E+000	6.00000E-002	1.51781E-003	7	...........	-327.66
	312	0.626	5.08316E-002	-4.04016E-006	0.00000E+000	5.00000E-002	1.41781E-003	7	...........	-327.66
	313	0.628	4.07920E-002	-4.07565E-006	0.00000E+000	4.00000E-002	1.43678E-003	7	...........	-327.66
	314	0.63	3.08359E-002	-4.11129E-006	0.00000E+000	3.00000E-002	1.47815E-003	7	...........	-327.66
	315	0.632	2.08359E-002	-4.14468E-006	0.00000E+000	2.00000E-002	1.37643E-003	7	...........	-327.66
	316	0.634	1.08713E-002	-4.17715E-006	0.00000E+000	9.99999E-003	1.49022E-003	7	...........	-327.66
	317	0.636	8.14376E-004	-4.20951E-006	0.00000E+000	-1.49012E-008	1.43850E-003	7	...........	-327.66
	318	0.638	-9.13649E-003	-4.23910E-006	0.00000E+000	-1.00000E-002	1.42126E-003	7	...........	-327.66
	319	0.64	-1.91477E-002	-4.27152E-006	0.00000E+000	-2.00000E-002	1.47126E-003	7	...........	-327.66
	320	0.642	-2.91667E-002	-4.29987E-006	0.00000E+000	-3.00000E-002	1.44712E-003	7	...........	-327.66
	321	0.644	-3.91261E-002	-4.32900E-006	0.00000E+000	-4.00000E-002	1.45919E-003	7	...........	-327.66
	322	0.646	-4.91899E-002	-4.35802E-006	0.00000E+000	-5.00000E-002	1.50057E-003	7	...........	-327.66
	323	0.648	-5.91761E-002	-4.38586E-006	0.00000E+000	-6.00000E-002	1.50574E-003	7	...........	-327.66
	324	0.65	-6.91279E-002	-4.41090E-006	0.00000E+000	-7.00000E-002	1.51436E-003	7	...........	-327.66
	325	0.652	-7.92003E-002	-4.43729E-006	0.00000E+000	-8.00000E-002	1.46264E-003	7	...........	-327.66
	326	0.654	-8.91382E-002	-4.46139E-006	0.00000E+000	-9.00000E-002	1.40747E-003	7	...........	-327.66
	327	0.656	-9.91813E-002	-4.48600E-006	0.00000E+000	-1.00000E-001	1.39367E-003	7	...........	-327.66
	328	0.658	-1.09159E-001	-4.50974E-006	0.00000E+000	-1.10000E-001	1.43333E-003	7	...........	-327.66
	329	0.66	-1.19159E-001	-4.53233E-006	0.00000E+000	-1.20000E-001	1.48160E-003	7	...........	-327.66
	330	0.662	-1.29189E-001	-4.55389E-006	0.00000E+000	-1.30000E-001	1.46609E-003	7	...........	-327.66
	331	0.664	-1.39151E-001	-4.57444E-006	0.00000E+000	-1.40000E-001	1.40747E-003	7	...........	-327.66
	332	0.666	-1.49190E-001	-4.59503E-006	0.00000E+000	-1.50000E-001	1.40057E-003	7	...........	-327.66
	333	0.668	-1.59191E-001	-4.61398E-006	0.00000E+000	-1.60000E-001	1.36781E-003	7	...........	-327.66
	334	0.67	-1.69143E-001	-4.63193E-006	0.00000E+000	-1.70000E-001	1.41264E-003	7	...........	-327.66
	335	0.672	-1.79174E-001	-4.64981E-006	0.00000E+000	-1.80000E-001	1.41436E-003	7	...........	-327.66
	336	0.674	-1.89102E-001	-4.66573E-006	0.00000E+000	-1.90000E-001	1.50747E-003	7	...........	-327.66
	337	0.676	-1.99199E-001	-4.68273E-006	0.00000E+000	-2.00000E-001	1.47643E-003	7	...........	-327.66
	338	0.678	-2.09150E-001	-4.69698E-006	0.00000E+000	-2.10000E-001	1.44712E-003	7	...........	-327.66
	339	0.68	-2.19088E-001	-4.71070E-006	0.00000E+000	-2.20000E-001	1.40747E-003	7	...........	-327.66
	340	0.682	-2.29145E-001	-4.72315E-006	0.00000E+000	-2.30000E-001	1.41091E-003	7	...........	-327.66
	341	0.684	-2.39168E-001	-4.73560E-006	0.00000E+000	-2.40000E-001	1.39540E-003	7	...........	-327.66
	342	0.686	-2.49139E-001	-4.74676E-006	0.00000E+000	-2.50000E-001	1.52298E-003	7	...........	-327.66
	343	0.688	-2.59145E-001	-4.75574E-006	0.00000E+000	-2.60000E-001	1.42815E-003	7	...........	-327.66
	344	0.69	-2.69094E-001	-4.76511E-006	0.00000E+000	-2.70000E-001	1.41091E-003	7	...........	-327.66
	345	0.692	-2.79148E-001	-4.77250E-006	0.00000E+000	-2.80000E-001	1.40402E-003	7	...........	-327.66
	346	0.694	-2.89133E-001	-4.77925E-006	0.00000E+000	-2.90000E-001	1.45919E-003	7	...........	-327.66
	347	0.696	-2.99115E-001	-4.78506E-006	0.00000E+000	-3.00000E-001	1.46609E-003	7	...........	-327.66
	348	0.698	-3.09145E-001	-4.78970E-006	0.00000E+000	-3.10000E-001	1.51091E-003	7	...........	-327.66
	349	0.7	-3.19171E-001	-4.79378E-006	0.00000E+000	-3.20000E-001	1.46609E-003	7	...........	-327.66
	350	0.702	-3.29180E-001	-4.79604E-006	0.00000E+000	-3.30000E-001	1.39195E-003	7	...........	-327.66
	351	0.704	-3.39168E-001	-4.79839E-006	0.00000E+000	-3.40000E-001	1.37988E-003	7	...........	-327.66
	352	0.706	-3.49141E-001	-4.79794E-006	0.00000E+000	-3.50000E-001	1.49540E-003	7	...........	-327.66
	353	0.708	-3.59169E-001	-4.79896E-006	0.00000E+000	-3.60000E-001	1.48333E-003	7	...........	-327.66
	354	0.71	-3.69056E-001	-4.79771E-006	0.00000E+000	-3.70000E-001	1.42471E-003	7	...........	-327.66
	355	0.712	-3.79161E-001	-4.79664E-006	0.00000E+000	-3.80000E-001	1.44712E-003	7	...........	-327.66
	356	0.714	-3.89115E-001	-4.79345E-006	0.00000E+000	-3.90000E-001	1.47126E-003	7	...........	-327.66
	357	0.716	-3.99130E-001	-4.79177E-006	0.00000E+000	-4.00000E-001	1.43160E-003	7	...........	-327.66
	358	0.718	-4.09130E-001	-4.78764E-006	0.00000E+000	-4.10000E-001	1.45574E-003	7	...........	-327.66
	359	0.72	-4.19094E-001	-4.78442E-006	0.00000E+000	-4.20000E-001	1.44022E-003	7	...........	-327.66
	360	0.722	-4.29120E-001	-4.77963E-006	0.00000E+000	-4.30000E-001	1.41091E-003	7	...........	-327.66
	361	0.724	-4.39165E-001	-4.77421E-006	0.00000E+000	-4.40000E-001	1.44884E-003	7	...........	-327.66
	362	0.726	-4.49071E-001	-4.76945E-006	0.00000E+000	-4.50000E-001	1.40402E-003	7	...........	-327.66
	363	0.728	-4.59140E-001	-4.76354E-006	0.00000E+000	-4.60000E-001	1.39712E-003	7	...........	-327.66
	364	0.73	-4.69055E-001	-4.75767E-006	0.00000E+000	-4.70000E-001	1.44022E-003	7	...........	-327.66
	365	0.732	-4.79104E-001	-4.75252E-006	0.00000E+000	-4.80000E-001	1.42815E-003	7	...........	-327.66
	366	0.734	-4.89131E-001	-4.74498E-006	0.00000E+000	-4.90000E-001	1.45574E-003	7	...........	-327.66
	367	0.736	-4.99044E-001	-4.73840E-006	0.00000E+000	-5.00000E-001	1.46091E-003	7	...........	-327.66
	368	0.738	-5.09123E-001	-4.73019E-006	0.00000E+000	-5.10000E-001	1.44712E-003	7	...........	-327.66
	369	0.74	-5.19167E-001	-4.72063E-006	0.00000E+000	-5.20000E-001	1.45402E-003	7	...........	-327.66
	370	0.742	-5.29112E-001	-4.71018E-006	0.00000E+000	-5.30000E-001	1.45057E-003	7	...........	-327.66
	371	0.744	-5.39156E-001	-4.69817E-006	0.00000E+000	-5.40000E-001	1.47126E-003	7	...........	-327.66
	372	0.746	-5.49073E-001	-4.68228E-006	0.00000E+000	-5.50000E-001	1.42988E-003	7	...........	-327.66
	373	0.748	-5.59142E-001	-4.66466E-006	0.00000E+000	-5.60000E-001	1.40747E-003	7	...........	-327.66
	374	0.75	-5.69110E-001	-4.64250E-006	0.00000E+000	-5.70000E-001	1.46436E-003	7	...........	-327.66
	375	0.752	-5.79073E-001	-4.61614E-006	0.00000E+000	-5.80000E-001	1.45574E-003	7	...........	-327.66
	376	0.754	-5.89109E-001	-4.58377E-006	0.00000E+000	-5.90000E-001	1.47815E-003	7	...........	-327.66
	377	0.756	-5.99109E-001	-4.54570E-006	0.00000E+000	-6.00000E-001	1.46781E-003	7	...........	-327.66
	378	0.758	-6.09148E-001	-4.49985E-006	0.00000E+000	-6.10000E-001	1.43850E-003	7	...........	-327.66
	379	0.76	-6.19119E-001	-4.44351E-006	0.00000E+000	-6.20000E-001	1.42643E-003	7	...........	-327.66
	380	0.762	-6.29030E-001	-4.37841E-006	0.00000E+000	-6.30000E-001	1.40057E-003	7	...........	-327.66
	381	0.764	-6.39123E-001	-4.30134E-006	0.00000E+000	-6.40000E-001	1.47815E-003	7	...........	-327.66
	382	0.766	-6.49074E-001	-4.21156E-006	0.00000E+000	-6.50000E-001	1.48678E-003	7	...........	-327.66
	383	0.768	-6.59097E-001	-4.11055E-006	0.00000E+000	-6.60000E-001	1.40919E-003	7	...........	-327.66
	384	0.77	-6.69043E-001	-3.99521E-006	0.00000E+000	-6.70000E-001	1.50747E-003	7	...........	-327.66
	385	0.772	-6.79049E-001	-3.87148E-006	0.00000E+000	-6.80000E-001	1.44540E-003	7	...........	-327.66
	386	0.774	-6.89126E-001	-3.73802E-006	0.00000E+000	-6.90000E-001	1.48850E-003	7	...........	-327.66
	387	0.776	-6.99111E-001	-3.59291E-006	0.00000E+000	-7.00000E-001	1.48333E-003	7	...........	-327.66
	388	0.778	-7.09056E-001	-3.43770E-006	0.00000E+000	-7.10000E-001	1.46264E-003	7	...........	-327.66
	389	0.78	-7.19132E-001	-3.27375E-006	0.00000E+000	-7.20000E-001	1.39195E-003	7	...........	-327.66
	390	0.782	-7.29075E-001	-3.10979E-006	0.00000E+000	-7.30000E-001	1.44712E-003	7	...........	-327.66
	391	0.784	-7.39129E-001	-2.94074E-006	0.00000E+000	-7.40000E-001	1.40747E-003	7	...........	-327.66
	392	0.786	-7.49088E-001	-2.77316E-006	0.00000E+000	-7.50000E-001	1.43160E-003	7	...........	-327.66
	393	0.788	-7.59083E-001	-2.60290E-006	0.00000E+000	-7.60000E-001	1.45574E-003	7	...........	-327.66
	394	0.79	-7.69110E-001	-2.43977E-006	0.00000E+000	-7.70000E-001	1.48160E-003	7	...........	-327.66
	395	0.792	-7.79067E-001	-2.28056E-006	0.00000E+000	-7.80000E-001	1.45919E-003	7	...........	-327.66
	396	0.794	-7.89086E-001	-2.12968E-006	0.00000E+000	-7.90000E-001	1.49884E-003	7	...........	-327.66
	397	0.796	-7.99146E-001	-1.99050E-006	0.00000E+000	-8.00000E-001	1.49712E-003	7	...........	-327.66
	398	0.798	-8.09094E-001	-1.86216E-006	0.00000E+000	-8.10000E-001	1.50574E-003	7	...........	-327.66
	399	0.8	-8.19135E-001	-1.74582E-006	0.00000E+000	-8.20000E-001	1.42471E-003	7	...........	-327.66
	400	0.802	-8.29056E-001	-1.63433E-006	0.00000E+000	-8.30000E-001	1.47298E-003	7	...........	-327.66
	401	0.804	-8.39124E-001	-1.53723E-006	0.00000E+000	-8.40000E-001	1.41609E-003	7	...........	-327.66
	402	0.806	-8.49136E-001	-1.44833E-006	0.00000E+000	-8.50000E-001	1.45057E-003	7	...........	-327.66
	403	0.808	-8.59047E-001	-1.37085E-006	0.00000E+000	-8.60000E-001	1.49022E-003	7	...........	-327.66
	404	0.81	-8.69130E-001	-1.30077E-006	0.00000E+000	-8.70000E-001	1.45574E-003	7	...........	-327.66
	405	0.812	-8.79142E-001	-1.23726E-006	0.00000E+000	-8.80000E-001	1.43160E-003	7	...........	-327.66
	406	0.814	-8.89117E-001	-1.18167E-006	0.00000E+000	-8.90000E-001	1.46091E-003	7	...........	-327.66
	407	0.816	-8.99138E-001	-1.12830E-006	0.00000E+000	-9.00000E-001	1.47298E-003	7	...........	-327.66
	408	0.818	-8.90649E-001	-9.91661E-007	0.00000E+000	-8.90000E-001	1.43333E-003	7	...........	-327.66
	409	0.82	-8.80696E-001	-8.89750E-007	0.00000E+000	-8.80000E-001	1.47298E-003	7	...........	-327.66
	410	0.822	-8.70692E-001	-8.11567E-007	0.00000E+000	-8.70000E-001	1.46953E-003	7	...........	-327.66
	411	0.824	-8.60701E-001	-7.44575E-007	0.00000E+000	-8.60000E-001	1.43678E-003	7	...........	-327.66
	412	0.826	-8.50698E-001	-6.89137E-007	0.00000E+000	-8.50000E-001	1.41781E-003	7	...........	-327.66
	413	0.828	-8.40723E-001	-6.36629E-007	0.00000E+000	-8.40000E-001	1.45919E-003	7	...........	-327.66
	414	0.83	-8.30650E-001	-5.87312E-007	0.00000E+000	-8.30000E-001	1.49022E-003	7	...........	-327.66
	415	0.832	-8.20712E-001	-5.44100E-007	0.00000E+000	-8.20000E-001	1.50229E-003	7	...........	-327.66
	416	0.834	-8.10645E-001	-4.98283E-007	0.00000E+000	-8.10000E-001	1.39540E-003	7	...........	-327.66
	417	0.836	-8.00668E-001	-4.56260E-007	0.00000E+000	-8.00000E-001	1.50574E-003	7	...........	-327.66
	418	0.838	-7.90665E-001	-4.12289E-007	0.00000E+000	-7.90000E-001	1.46609E-003	7	...........	-327.66
	419	0.84	-7.80585E-001	-3.65903E-007	0.00000E+000	-7.80000E-001	1.45919E-003	7	...........	-327.66
	420	0.842	-7.70669E-001	-3.22087E-007	0.00000E+000	-7.70000E-001	1.38850E-003	7	...........	-327.66
	421	0.844	-7.60667E-001	-2.72476E-007	0.00000E+000	-7.60000E-001	1.44022E-003	7	...........	-327.66
	422	0.846	-7.50610E-001	-2.19573E-007	0.00000E+000	-7.50000E-001	1.40229E-003	7	...........	-327.66
	423	0.848	-7.40738E-001	-1.62634E-007	0.00000E+000	-7.40000E-001	1.40574E-003	7	...........	-327.66
	424	0.85	-7.30683E-001	-1.00763E-007	0.00000E+000	-7.30000E-001	1.41609E-003	7	...........	-327.66
	425	0.852	-7.20711E-001	-3.49268E-008	0.00000E+000	-7.20000E-001	1.43160E-003	7	...........	-327.66
	426	0.854	-7.10655E-001	3.96006E-008	0.00000E+000	-7.10000E-001	1.42126E-003	7	...........	-327.66
	427	0.856	-7.00703E-001	1.20060E-007	0.00000E+000	-7.00000E-001	1.46609E-003	7	...........	-327.66
	428	0.858	-6.90699E-001	2.08796E-007	0.00000E+000	-6.90000E-001	1.48333E-003	7	...........	-327.66
	429	0.86	-6.80680E-001	3.06896E-007	0.00000E+000	-6.80000E-001	1.48160E-003	7	...........	-327.66
	430	0.862	-6.70624E-001	4.15307E-007	0.00000E+000	-6.70000E-001	1.46436E-003	7	...........	-327.66
	431	0.864	-6.60718E-001	5.33875E-007	0.00000E+000	-6.60000E-001	1.41781E-003	7	...........	-327.66
	432	0.866	-6.50687E-001	6.65582E-007	0.00000E+000	-6.50000E-001	1.41091E-003	7	...........	-327.66
	433	0.868	-6.40724E-001	8.10516E-007	0.00000E+000	-6.40000E-001	1.50229E-003	7	...........	-327.66
	434	0.87	-6.30674E-001	9.70934E-007	0.00000E+000	-6.30000E-001	1.46781E-003	7	...........	-327.66
	435	0.872	-6.20731E-001	1.14582E-006	0.00000E+000	-6.20000E-001	1.49195E-003	7	...........	-327.66
	436	0.874	-6.10767E-001	1.33805E-006	0.00000E+000	-6.10000E-001	1.45402E-003	7	...........	-327.66
	437	0.876	-6.00703E-001	1.54982E-006	0.00000E+000	-6.00000E-001	1.42126E-003	7	...........	-327.66
	438	0.878	-5.90755E-001	1.78208E-006	0.00000E+000	-5.90000E-001	1.45229E-003	7	...........	-327.66
	439	0.88	-5.80718E-001	2.03429E-006	0.00000E+000	-5.80000E-001	1.46264E-003	7	...........	-327.66
	440	0.882	-5.70735E-001	2.30796E-006	0.00000E+000	-5.70000E-001	1.42988E-003	7	...........	-327.66
	441	0.884	-5.60761E-001	2.60143E-006	0.00000E+000	-5.60000E-001	1.42298E-003	7	...........	-327.66
	442	0.886	-5.50679E-001	2.91401E-006	0.00000E+000	-5.50000E-001	1.47988E-003	7	...........	-327.66
	443	0.888	-5.40763E-001	3.23950E-006	0.00000E+000	-5.40000E-001	1.43505E-003	7	...........	-327.66
	444	0.89	-5.30753E-001	3.57229E-006	0.00000E+000	-5.30000E-001	1.50919E-003	7	...........	-327.66
	445	0.892	-5.20775E-001	3.91585E-006	0.00000E+000	-5.20000E-001	1.41436E-003	7	...........	-327.66
	446	0.894	-5.10725E-001	4.24507E-006	0.00000E+000	-5.10000E-001	1.42815E-003	7	...........	-327.66
	447	0.896	-5.00699E-001	4.55566E-006	0.00000E+000	-5.00000E-001	1.46436E-003	7	...........	-327.66
	448	0.898	-4.90756E-001	4.83358E-006	0.00000E+000	-4.90000E-001	1.43678E-003	7	...........	-327.66
	449	0.9	-4.80766E-001	5.06122E-006	0.00000E+000	-4.80000E-001	1.38850E-003	7	...........	-327.66
	450	0.902	-4.70685E-001	5.22722E-006	0.00000E+000	-4.70000E-001	1.42815E-003	7	...........	-327.66
	451	0.904	-4.60763E-001	5.33267E-006	0.00000E+000	-4.60000E-001	1.41953E-003	7	...........	-327.66
	452	0.906	-4.50705E-001	5.37960E-006	0.00000E+000	-4.50000E-001	1.44712E-003	7	...........	-327.66
	453	0.908	-4.40767E-001	5.37881E-006	0.00000E+000	-4.40000E-001	1.50574E-003	7	...........	-327.66
	454	0.91	-4.30749E-001	5.34053E-006	0.00000E+000	-4.30000E-001	1.49195E-003	7	...........	-327.66
	455	0.912	-4.20732E-001	5.27480E-006	0.00000E+000	-4.20000E-001	1.47643E-003	7	...........	-327.66
	456	0.914	-4.10766E-001	5.19491E-006	0.00000E+000	-4.10000E-001	1.47988E-003	7	...........	-327.66
	457	0.916	-4.00761E-001	5.10514E-006	0.00000E+000	-4.00000E-001	1.42815E-003	7	...........	-327.66
	458	0.918	-3.90757E-001	5.01305E-006	0.00000E+000	-3.90000E-001	1.39540E-003	7	...........	-327.66
	459	0.92	-3.80793E-001	4.92582E-006	0.00000E+000	-3.80000E-001	1.38333E-003	7	...........	-327.66
	460	0.922	-3.70723E-001	4.84427E-006	0.00000E+000	-3.70000E-001	1.40229E-003	7	...........	-327.66
	461	0.924	-3.60779E-001	4.77228E-006	0.00000E+000	-3.60000E-001	1.39195E-003	7	...........	-327.66
	462	0.926	-3.50761E-001	4.71025E-006	0.00000E+000	-3.50000E-001	1.38678E-003	7	...........	-327.66
	463	0.928	-3.40783E-001	4.65461E-006	0.00000E+000	-3.40000E-001	1.44195E-003	7	...........	-327.66
	464	0.93	-3.30804E-001	4.60848E-006	0.00000E+000	-3.30000E-001	1.39540E-003	7	...........	-327.66
	465	0.932	-3.20775E-001	4.56820E-006	0.00000E+000	-3.20000E-001	1.41091E-003	7	...........	-327.66
	466	0.934	-3.10777E-001	4.53437E-006	0.00000E+000	-3.10000E-001	1.47988E-003	7	...........	-327.66
	467	0.936	-3.00768E-001	4.50823E-006	0.00000E+000	-3.00000E-001	1.49367E-003	7	...........	-327.66
	468	0.938	-2.90782E-001	4.48569E-006	0.00000E+000	-2.90000E-001	1.46091E-003	7	...........	-327.66
	469	0.94	-2.80808E-001	4.46820E-006	0.00000E+000	-2.80000E-001	1.42815E-003	7	...........	-327.66
	470	0.942	-2.70731E-001	4.45337E-006	0.00000E+000	-2.70000E-001	1.42643E-003	7	...........	-327.66
	471	0.944	-2.60778E-001	4.43982E-006	0.00000E+000	-2.60000E-001	1.43678E-003	7	...........	-327.66
	472	0.946	-2.50797E-001	4.42703E-006	0.00000E+000	-2.50000E-001	1.44540E-003	7	...........	-327.66
	473	0.948	-2.40784E-001	4.41556E-006	0.00000E+000	-2.40000E-001	1.50402E-003	7	...........	-327.66
	474	0.95	-2.30765E-001	4.40418E-006	0.00000E+000	-2.30000E-001	1.42643E-003	7	...........	-327.66
	475	0.952	-2.20734E-001	4.39307E-006	0.00000E+000	-2.20000E-001	1.47471E-003	7	...........	-327.66
	476	0.954	-2.10775E-001	4.38240E-006	0.00000E+000	-2.10000E-001	1.49540E-003	7	...........	-327.66
	477	0.956	-2.00811E-001	4.37228E-006	0.00000E+000	-2.00000E-001	1.45747E-003	7	...........	-327.66
	478	0.958	-1.90743E-001	4.36324E-006	0.00000E+000	-1.90000E-001	1.50057E-003	7	...........	-327.66
	479	0.96	-1.80808E-001	4.35408E-006	0.00000E+000	-1.80000E-001	1.50402E-003	7	...........	-327.66
	480	0.962	-1.70794E-001	4.34793E-006	0.00000E+000	-1.70000E-001	1.42298E-003	7	...........	-327.66
	481	0.964	-1.60785E-001	4.34089E-006	0.00000E+000	-1.60000E-001	1.41781E-003	7	...........	-327.66
	482	0.966	-1.50808E-001	4.33394E-006	0.00000E+000	-1.50000E-001	1.39540E-003	7	...........	-327.66
	483	0.968	-1.40786E-001	4.33015E-006	0.00000E+000	-1.40000E-001	1.39712E-003	7	...........	-327.66
	484	0.97	-1.30827E-001	4.32456E-006	0.00000E+000	-1.30000E-001	1.50402E-003	7	...........	-327.66
	485	0.972	-1.20829E-001	4.32067E-006	0.00000E+000	-1.20000E-001	1.51091E-003	7	...........	-327.66
	486	0.974	-1.10786E-001	4.31579E-006	0.00000E+000	-1.10000E-001	1.48333E-003	7	...........	-327.66
	487	0.976	-1.00820E-001	4.31167E-006	0.00000E+000	-1.00000E-001	1.37815E-003	7	...........	-327.66
	488	0.978	-9.07874E-002	4.30742E-006	0.00000E+000	-9.00000E-002	1.44884E-003	7	...........	-327.66
	489	0.98	-8.08080E-002	4.30517E-006	0.00000E+000	-8.00000E-002	1.40057E-003	7	...........	-327.66
	490	0.982	-7.07710E-002	4.29890E-006	0.00000E+000	-7.00000E-002	1.42643E-003	7	...........	-327.66
	491	0.984	-6.07925E-002	4.29485E-006	0.00000E+000	-6.00000E-002	1.45574E-003	7	...........	-327.66
	492	0.986	-5.08123E-002	4.29070E-006	0.00000E+000	-5.00000E-002	1.46781E-003	7	...........	-327.66
	493	0.988	-4.07710E-002	4.28640E-006	0.00000E+000	-4.00000E-002	1.50402E-003	7	...........	-327.66
	494	0.99	-3.07684E-002	4.28233E-006	0.00000E+000	-3.00000E-002	1.39540E-003	7	...........	-327.66
	495	0.992	-2.08046E-002	4.27490E-006	0.00000E+000	-2.00000E-002	1.49022E-003	7	...........	-327.66
	496	0.994	-1.07598E-002	4.27061E-006	0.00000E+000	-1.00000E-002	1.46264E-003	7	...........	-327.66
	497	0.996	-7.83900E-004	4.26464E-006	0.00000E+000	-1.49012E-008	1.44195E-003	7	...........	-327.66
	498	0.998	9.23765E-003	4.25871E-006	0.00000E+000	9.99999E-003	1.49884E-003	7	...........	-327.66
	499	1	1.92359E-002	4.25147E-006	0.00000E+000	2.00000E-002	1.44367E-003	7	...........	-327.66
	500	1.002	2.92014E-002	4.24371E-006	0.00000E+000	3.00000E-002	1.40229E-003	7	...........	-327.66
	501	1.004	3.91187E-002	4.23679E-006	0.00000E+000	4.00000E-002	1.47815E-003	7	...........	-327.66
	502	1.006	4.92290E-002	4.22884E-006	0.00000E+000	5.00000E-002	1.52298E-003	7	...........	-327.66
	503	1.008	5.92040E-002	4.21964E-006	0.00000E+000	6.00000E-002	1.43678E-003	7	...........	-327.66
	504	1.01	6.92213E-002	4.21024E-006	0.00000E+000	7.00000E-002	1.39540E-003	7	...........	-327.66
	505	1.012	7.92126E-002	4.20060E-006	0.00000E+000	8.00000E-002	1.39884E-003	7	...........	-327.66
	506	1.014	8.92385E-002	4.19091E-006	0.00000E+000	9.00000E-002	1.41609E-003	7	...........	-327.66
	507	1.016	9.92066E-002	4.18065E-006	0.00000E+000	1.00000E-001	1.45747E-003	7	...........	-327.66
	508	1.018	1.09218E-001	4.17034E-006	0.00000E+000	1.10000E-001	1.41436E-003	7	...........	-327.66
	509	1.02	1.19217E-001	4.15840E-006	0.00000E+000	1.20000E-001	1.48160E-003	7	...........	-327.66
	510	1.022	1.29239E-001	4.14880E-006	0.00000E+000	1.30000E-001	1.45574E-003	7	...........	-327.66
	511	1.024	1.39253E-001	4.13693E-006	0.00000E+000	1.40000E-001	1.48678E-003	7	...........	-327.66
	512	1.026	1.49214E-001	4.12568E-006	0.00000E+000	1.50000E-001	1.41953E-003	7	...........	-327.66
	513	1.028	1.59244E-001	4.11455E-006	0.00000E+000	1.60000E-001	1.40402E-003	7	...........	-327.66
	514	1.03	1.69270E-001	4.10298E-006	0.00000E+000	1.70000E-001	1.49022E-003	7	...........	-327.66
	515	1.032	1.79215E-001	4.09081E-006	0.00000E+000	1.80000E-001	1.48850E-003	7	...........	-327.66
	516	1.034	1.89239E-001	4.07967E-006	0.00000E+000	1.90000E-001	1.52126E-003	7	...........	-327.66
	517	1.036	1.99218E-001	4.06836E-006	0.00000E+000	2.00000E-001	1.42298E-003	7	...........	-327.66
	518	1.038	2.09200E-001	4.05663E-006	0.00000E+000	2.10000E-001	1.36264E-003	7	...........	-327.66
	519	1.04	2.19212E-001	4.04589E-006	0.00000E+000	2.20000E-001	1.44195E-003	7	...........	-327.66
	520	1.042	2.29189E-001	4.03428E-006	0.00000E+000	2.30000E-001	1.41091E-003	7	...........	-327.66
	521	1.044	2.39189E-001	4.02347E-006	0.00000E+000	2.40000E-001	1.42298E-003	7	...........	-327.66
	522	1.046	2.49232E-001	4.01240E-006	0.00000E+000	2.50000E-001	1.43333E-003	7	...........	-327.66
	523	1.048	2.59190E-001	4.00157E-006	0.00000E+000	2.60000E-001	1.41436E-003	7	...........	-327.66
	524	1.05	2.69224E-001	3.99274E-006	0.00000E+000	2.70000E-001	1.49884E-003	7	...........	-327.66
	525	1.052	2.79159E-001	3.98229E-006	0.00000E+000	2.80000E-001	1.50402E-003	7	...........	-327.66
	526	1.054	2.89207E-001	3.97469E-006	0.00000E+000	2.90000E-001	1.47988E-003	7	...........	-327.66
	527	1.056	2.99205E-001	3.96557E-006	0.00000E+000	3.00000E-001	1.46436E-003	7	...........	-327.66
	528	1.058	3.09201E-001	3.95896E-006	0.00000E+000	3.10000E-001	1.41781E-003	7	...........	-327.66
	529	1.06	3.19212E-001	3.95232E-006	0.00000E+000	3.20000E-001	1.46436E-003	7	...........	-327.66
	530	1.062	3.29211E-001	3.94537E-006	0.00000E+000	3.30000E-001	1.45574E-003	7	...........	-327.66
	531	1.064	3.39196E-001	3.94030E-006	0.00000E+000	3.40000E-001	1.41436E-003	7	...........	-327.66
	532	1.066	3.49210E-001	3.93577E-006	0.00000E+000	3.50000E-001	1.39367E-003	7	...........	-327.66
	533	1.068	3.59179E-001	3.93234E-006	0.00000E+000	3.60000E-001	1.44367E-003	7	...........	-327.66
	534	1.07	3.69213E-001	3.93144E-006	0.00000E+000	3.70000E-001	1.39195E-003	7	...........	-327.66
	535	1.072	3.79207E-001	3.92904E-006	0.00000E+000	3.80000E-001	1.40747E-003	7	...........	-327.66
	536	1.074	3.89179E-001	3.92791E-006	0.00000E+000	3.90000E-001	1.47643E-003	7	...........	-327.66
	537	1.076	3.99175E-001	3.92996E-006	0.00000E+000	4.00000E-001	1.42471E-003	7	...........	-327.66
	538	1.078	4.09184E-001	3.93182E-006	0.00000E+000	4.10000E-001	1.50402E-003	7	...........	-327.66
	539	1.08	4.19197E-001	3.93494E-006	0.00000E+000	4.20000E-001	1.45229E-003	7	...........	-327.66
	540	1.082	4.29195E-001	3.93872E-006	0.00000E+000	4.30000E-001	1.52126E-003	7	...........	-327.66
	541	1.084	4.39157E-001	3.94408E-006	0.00000E+000	4.40000E-001	1.46091E-003	7	...........	-327.66
	542	1.086	4.49187E-001	3.95167E-006	0.00000E+000	4.50000E-001	1.43850E-003	7	...........	-327.66
	543	1.088	4.59184E-001	3.96012E-006	0.00000E+000	4.60000E-001	1.44367E-003	7	...........	-327.66
	544	1.09	4.69151E-001	3.97040E-006	0.00000E+000	4.70000E-001	1.50747E-003	7	...........	-327.66
	545	1.092	4.79164E-001	3.98060E-006	0.00000E+000	4.80000E-001	1.41953E-003	7	...........	-327.66
	546	1.094	4.89155E-001	3.99254E-006	0.00000E+000	4.90000E-001	1.40574E-003	7	...........	-327.66
	547	1.096	4.99211E-001	4.00688E-006	0.00000E+000	5.00000E-001	1.45919E-003	7	...........	-327.66
	548	1.098	5.09133E-001	4.02107E-006	0.00000E+000	5.10000E-001	1.39712E-003	7	...........	-327.66
	549	1.1	5.19166E-001	4.03682E-006	0.00000E+000	5.20000E-001	1.42471E-003	7	...........	-327.66
	550	1.102	5.29224E-001	4.05444E-006	0.00000E+000	5.30000E-001	1.45229E-003	7	...........	-327.66
	551	1.104	5.39183E-001	4.07055E-006	0.00000E+000	5.40000E-001	1.42988E-003	7	...........	-327.66
	552	1.106	5.49178E-001	4.08839E-006	0.00000E+000	5.50000E-001	1.46781E-003	7	...........	-327.66
	553	1.108	5.59184E-001	4.10809E-006	0.00000E+000	5.60000E-001	1.47643E-003	7	...........	-327.66
	554	1.11	5.69183E-001	4.12730E-006	0.00000E+000	5.70000E-001	1.48333E-003	7	...........	-327.66
	555	1.112	5.79186E-001	4.14840E-006	0.00000E+000	5.80000E-001	1.47471E-003	7	...........	-327.66
	556	1.114	5.89171E-001	4.17225E-006	0.00000E+000	5.90000E-001	1.50402E-003	7	...........	-327.66
	557	1.116	5.99183E-001	4.19706E-006	0.00000E+000	6.00000E-001	1.50747E-003	7	...........	-327.66
CURVE3	TABLE
	Pt	T	Vf	Im	Vu	Sig	Ach	IERange	Over	Temp
	#	s	V vs. Ref.	A	V	V	V	#	bits	deg C
	558	1.118	5.90766E-001	2.82477E-006	0.00000E+000	5.90000E-001	1.40919E-003	7	...........	-327.66
	559	1.12	5.80777E-001	2.08638E-006	0.00000E+000	5.80000E-001	1.41264E-003	7	...........	-327.66
	560	1.122	5.70751E-001	1.55025E-006	0.00000E+000	5.70000E-001	1.36609E-003	7	...........	-327.66
	561	1.124	5.60763E-001	1.11423E-006	0.00000E+000	5.60000E-001	1.41953E-003	7	...........	-327.66
	562	1.126	5.50778E-001	7.41110E-007	0.00000E+000	5.50000E-001	1.44195E-003	7	...........	-327.66
	563	1.128	5.40776E-001	4.14790E-007	0.00000E+000	5.40000E-001	1.39540E-003	7	...........	-327.66
	564	1.13	5.30756E-001	1.22905E-007	0.00000E+000	5.30000E-001	1.41609E-003	7	...........	-327.66
	565	1.132	5.20773E-001	-1.40148E-007	0.00000E+000	5.20000E-001	1.40747E-003	7	...........	-327.66
	566	1.134	5.10782E-001	-3.78560E-007	0.00000E+000	5.10000E-001	1.44195E-003	7	...........	-327.66
	567	1.136	5.00837E-001	-5.97538E-007	0.00000E+000	5.00000E-001	1.42643E-003	7	...........	-327.66
	568	1.138	4.90757E-001	-7.98427E-007	0.00000E+000	4.90000E-001	1.41264E-003	7	...........	-327.66
	569	1.14	4.80768E-001	-9.83832E-007	0.00000E+000	4.80000E-001	1.39022E-003	7	...........	-327.66
	570	1.142	4.70770E-001	-1.15632E-006	0.00000E+000	4.70000E-001	1.41781E-003	7	...........	-327.66
	571	1.144	4.60797E-001	-1.31631E-006	0.00000E+000	4.60000E-001	1.44884E-003	7	...........	-327.66
	572	1.146	4.50832E-001	-1.46538E-006	0.00000E+000	4.50000E-001	1.45919E-003	7	...........	-327.66
	573	1.148	4.40758E-001	-1.60673E-006	0.00000E+000	4.40000E-001	1.45229E-003	7	...........	-327.66
	574	1.15	4.30787E-001	-1.73535E-006	0.00000E+000	4.30000E-001	1.43160E-003	7	...........	-327.66
	575	1.152	4.20808E-001	-1.85857E-006	0.00000E+000	4.20000E-001	1.43505E-003	7	...........	-327.66
	576	1.154	4.10767E-001	-1.97343E-006	0.00000E+000	4.10000E-001	1.50747E-003	7	...........	-327.66
	577	1.156	4.00808E-001	-2.08119E-006	0.00000E+000	4.00000E-001	1.49540E-003	7	...........	-327.66
	578	1.158	3.90784E-001	-2.18541E-006	0.00000E+000	3.90000E-001	1.42126E-003	7	...........	-327.66
	579	1.16	3.80808E-001	-2.28197E-006	0.00000E+000	3.80000E-001	1.47126E-003	7	...........	-327.66
	580	1.162	3.70817E-001	-2.37316E-006	0.00000E+000	3.70000E-001	1.50402E-003	7	...........	-327.66
	581	1.164	3.60779E-001	-2.46129E-006	0.00000E+000	3.60000E-001	1.46609E-003	7	...........	-327.66
	582	1.166	3.50849E-001	-2.54501E-006	0.00000E+000	3.50000E-001	1.49367E-003	7	...........	-327.66
	583	1.168	3.40825E-001	-2.62366E-006	0.00000E+000	3.40000E-001	1.45574E-003	7	...........	-327.66
	584	1.17	3.30813E-001	-2.69841E-006	0.00000E+000	3.30000E-001	1.45747E-003	7	...........	-327.66
	585	1.172	3.20783E-001	-2.77089E-006	0.00000E+000	3.20000E-001	1.39540E-003	7	...........	-327.66
	586	1.174	3.10786E-001	-2.84141E-006	0.00000E+000	3.10000E-001	1.45919E-003	7	...........	-327.66
	587	1.176	3.00827E-001	-2.90775E-006	0.00000E+000	3.00000E-001	1.49195E-003	7	...........	-327.66
	588	1.178	2.90802E-001	-2.97153E-006	0.00000E+000	2.90000E-001	1.50057E-003	7	...........	-327.66
	589	1.18	2.80768E-001	-3.03344E-006	0.00000E+000	2.80000E-001	1.50747E-003	7	...........	-327.66
	590	1.182	2.70865E-001	-3.09260E-006	0.00000E+000	2.70000E-001	1.51781E-003	7	...........	-327.66
	591	1.184	2.60788E-001	-3.15139E-006	0.00000E+000	2.60000E-001	1.46264E-003	7	...........	-327.66
	592	1.186	2.50835E-001	-3.20603E-006	0.00000E+000	2.50000E-001	1.47126E-003	7	...........	-327.66
	593	1.188	2.40812E-001	-3.25961E-006	0.00000E+000	2.40000E-001	1.43678E-003	7	...........	-327.66
	594	1.19	2.30816E-001	-3.31346E-006	0.00000E+000	2.30000E-001	1.49540E-003	7	...........	-327.66
	595	1.192	2.20853E-001	-3.36474E-006	0.00000E+000	2.20000E-001	1.47815E-003	7	...........	-327.66
	596	1.194	2.10795E-001	-3.41427E-006	0.00000E+000	2.10000E-001	1.41953E-003	7	...........	-327.66
	597	1.196	2.00816E-001	-3.46351E-006	0.00000E+000	2.00000E-001	1.44022E-003	7	...........	-327.66
	598	1.198	1.90858E-001	-3.51054E-006	0.00000E+000	1.90000E-001	1.42988E-003	7	...........	-327.66
	599	1.2	1.80823E-001	-3.55744E-006	0.00000E+000	1.80000E-001	1.49022E-003	7	...........	-327.66
	600	1.202	1.70879E-001	-3.60309E-006	0.00000E+000	1.70000E-001	1.44022E-003	7	...........	-327.66
	601	1.204	1.60832E-001	-3.64759E-006	0.00000E+000	1.60000E-001	1.44195E-003	7	...........	-327.66
	602	1.206	1.50835E-001	-3.68967E-006	0.00000E+000	1.50000E-001	1.44367E-003	7	...........	-327.66
	603	1.208	1.40907E-001	-3.73250E-006	0.00000E+000	1.40000E-001	1.46436E-003	7	...........	-327.66
	604	1.21	1.30866E-001	-3.77338E-006	0.00000E+000	1.30000E-001	1.45402E-003	7	...........	-327.66
	605	1.212	1.20797E-001	-3.81461E-006	0.00000E+000	1.20000E-001	1.50229E-003	7	...........	-327.66
	606	1.214	1.10825E-001	-3.85322E-006	0.00000E+000	1.10000E-001	1.43160E-003	7	...........	-327.66
	607	1.216	1.00820E-001	-3.89306E-006	0.00000E+000	1.00000E-001	1.39195E-003	7	...........	-327.66
	608	1.218	9.09101E-002	-3.92935E-006	0.00000E+000	9.00000E-002	1.46091E-003	7	...........	-327.66
	609	1.22	8.08040E-002	-3.96638E-006	0.00000E+000	8.00000E-002	1.42471E-003	7	...........	-327.66
	610	1.222	7.08325E-002	-4.00273E-006	0.00000E+000	7.00000E-002	1.41091E-003	7	...........	-327.66
	611	1.224	6.08489E-002	-4.03628E-006	0.00000E+000	6.00000E-002	1.40747E-003	7	...........	-327.66
	612	1.226	5.08299E-002	-4.07132E-006	0.00000E+000	5.00000E-002	1.42815E-003	7	...........	-327.66
	613	1.228	4.08187E-002	-4.10476E-006	0.00000E+000	4.00000E-002	1.48160E-003	7	...........	-327.66
	614	1.23	3.08178E-002	-4.13699E-006	0.00000E+000	3.00000E-002	1.43678E-003	7	...........	-327.66
	615	1.232	2.08385E-002	-4.16839E-006	0.00000E+000	2.00000E-002	1.51436E-003	7	...........	-327.66
	616	1.234	1.08549E-002	-4.19861E-006	0.00000E+000	9.99999E-003	1.41781E-003	7	...........	-327.66
	617	1.236	8.16100E-004	-4.22869E-006	0.00000E+000	-1.49012E-008	1.39195E-003	7	...........	-327.66
	618	1.238	-9.13131E-003	-4.25745E-006	0.00000E+000	-1.00000E-002	1.43678E-003	7	...........	-327.66
	619	1.24	-1.91598E-002	-4.28602E-006	0.00000E+000	-2.00000E-002	1.46781E-003	7	...........	-327.66
	620	1.242	-2.91675E-002	-4.31332E-006	0.00000E+000	-3.00000E-002	1.45747E-003	7	...........	-327.66
	621	1.244	-3.91322E-002	-4.34072E-006	0.00000E+000	-4.00000E-002	1.51091E-003	7	...........	-327.66
	622	1.246	-4.91934E-002	-4.36622E-006	0.00000E+000	-5.00000E-002	1.44367E-003	7	...........	-327.66
	623	1.248	-5.91399E-002	-4.39264E-006	0.00000E+000	-6.00000E-002	1.46436E-003	7	...........	-327.66
	624	1.25	-6.91365E-002	-4.41601E-006	0.00000E+000	-7.00000E-002	1.39540E-003	7	...........	-327.66
	625	1.252	-7.91899E-002	-4.43948E-006	0.00000E+000	-8.00000E-002	1.40057E-003	7	...........	-327.66
	626	1.254	-8.91356E-002	-4.46313E-006	0.00000E+000	-9.00000E-002	1.43850E-003	7	...........	-327.66
	627	1.256	-9.91563E-002	-4.48526E-006	0.00000E+000	-1.00000E-001	1.45402E-003	7	...........	-327.66
	628	1.258	-1.09173E-001	-4.50685E-006	0.00000E+000	-1.10000E-001	1.45919E-003	7	...........	-327.66
	629	1.26	-1.19163E-001	-4.52732E-006	0.00000E+000	-1.20000E-001	1.49540E-003	7	...........	-327.66
	630	1.262	-1.29186E-001	-4.54630E-006	0.00000E+000	-1.30000E-001	1.47988E-003	7	...........	-327.66
	631	1.264	-1.39121E-001	-4.56665E-006	0.00000E+000	-1.40000E-001	1.49540E-003	7	...........	-327.66
	632	1.266	-1.49183E-001	-4.58449E-006	0.00000E+000	-1.50000E-001	1.42126E-003	7	...........	-327.66
	633	1.268	-1.59177E-001	-4.60160E-006	0.00000E+000	-1.60000E-001	1.51091E-003	7	...........	-327.66
	634	1.27	-1.69142E-001	-4.61800E-006	0.00000E+000	-1.70000E-001	1.46953E-003	7	...........	-327.66
	635	1.272	-1.79171E-001	-4.63345E-006	0.00000E+000	-1.80000E-001	1.50574E-003	7	...........	-327.66
	636	1.274	-1.89108E-001	-4.64850E-006	0.00000E+000	-1.90000E-001	1.45402E-003	7	...........	-327.66
	637	1.276	-1.99206E-001	-4.66335E-006	0.00000E+000	-2.00000E-001	1.42298E-003	7	...........	-327.66
	638	1.278	-2.09146E-001	-4.67566E-006	0.00000E+000	-2.10000E-001	1.46609E-003	7	...........	-327.66
	639	1.28	-2.19091E-001	-4.68804E-006	0.00000E+000	-2.20000E-001	1.49540E-003	7	...........	-327.66
	640	1.282	-2.29102E-001	-4.69867E-006	0.00000E+000	-2.30000E-001	1.48505E-003	7	...........	-327.66
	641	1.284	-2.39164E-001	-4.70941E-006	0.00000E+000	-2.40000E-001	1.41609E-003	7	...........	-327.66
	642	1.286	-2.49132E-001	-4.71981E-006	0.00000E+000	-2.50000E-001	1.41436E-003	7	...........	-327.66
	643	1.288	-2.59149E-001	-4.72736E-006	0.00000E+000	-2.60000E-001	1.46091E-003	7	...........	-327.66
	644	1.29	-2.69077E-001	-4.73434E-006	0.00000E+000	-2.70000E-001	1.42298E-003	7	...........	-327.66
	645	1.292	-2.79181E-001	-4.74041E-006	0.00000E+000	-2.80000E-001	1.42298E-003	7	...........	-327.66
	646	1.294	-2.89128E-001	-4.74550E-006	0.00000E+000	-2.90000E-001	1.45057E-003	7	...........	-327.66
	647	1.296	-2.99126E-001	-4.75002E-006	0.00000E+000	-3.00000E-001	1.45747E-003	7	...........	-327.66
	648	1.298	-3.09161E-001	-4.75135E-006	0.00000E+000	-3.10000E-001	1.42815E-003	7	...........	-327.66
	649	1.3	-3.19168E-001	-4.75466E-006	0.00000E+000	-3.20000E-001	1.44540E-003	7	...........	-327.66
	650	1.302	-3.29160E-001	-4.75412E-006	0.00000E+000	-3.30000E-001	1.39022E-003	7	...........	-327.66
	651	1.304	-3.39180E-001	-4.75424E-006	0.00000E+000	-3.40000E-001	1.48505E-003	7	...........	-327.66
	652	1.306	-3.49111E-001	-4.75298E-006	0.00000E+000	-3.50000E-001	1.48160E-003	7	...........	-327.66
	653	1.308	-3.59172E-001	-4.75109E-006	0.00000E+000	-3.60000E-001	1.46953E-003	7	...........	-327.66
	654	1.31	-3.69055E-001	-4.74812E-006	0.00000E+000	-3.70000E-001	1.47298E-003	7	...........	-327.66
	655	1.312	-3.79146E-001	-4.74698E-006	0.00000E+000	-3.80000E-001	1.44195E-003	7	...........	-327.66
	656	1.314	-3.89155E-001	-4.74153E-006	0.00000E+000	-3.90000E-001	1.48850E-003	7	...........	-327.66
	657	1.316	-3.99106E-001	-4.73671E-006	0.00000E+000	-4.00000E-001	1.38160E-003	7	...........	-327.66
	658	1.318	-4.09155E-001	-4.73152E-006	0.00000E+000	-4.10000E-001	1.41436E-003	7	...........	-327.66
	659	1.32	-4.19136E-001	-4.72538E-006	0.00000E+000	-4.20000E-001	1.41953E-003	7	...........	-327.66
	660	1.322	-4.29124E-001	-4.72015E-006	0.00000E+000	-4.30000E-001	1.39884E-003	7	...........	-327.66
	661	1.324	-4.39155E-001	-4.71262E-006	0.00000E+000	-4.40000E-001	1.45919E-003	7	...........	-327.66
	662	1.326	-4.49065E-001	-4.70565E-006	0.00000E+000	-4.50000E-001	1.51436E-003	7	...........	-327.66
	663	1.328	-4.59129E-001	-4.69822E-006	0.00000E+000	-4.60000E-001	1.51264E-003	7	...........	-327.66
	664	1.33	-4.69064E-001	-4.68994E-006	0.00000E+000	-4.70000E-001	1.48333E-003	7	...........	-327.66
	665	1.332	-4.79113E-001	-4.68308E-006	0.00000E+000	-4.80000E-001	1.46091E-003	7	...........	-327.66
	666	1.334	-4.89119E-001	-4.67285E-006	0.00000E+000	-4.90000E-001	1.45919E-003	7	...........	-327.66
	667	1.336	-4.99069E-001	-4.66404E-006	0.00000E+000	-5.00000E-001	1.44712E-003	7	...........	-327.66
	668	1.338	-5.09120E-001	-4.65409E-006	0.00000E+000	-5.10000E-001	1.50229E-003	7	...........	-327.66
	669	1.34	-5.19154E-001	-4.64352E-006	0.00000E+000	-5.20000E-001	1.49195E-003	7	...........	-327.66
	670	1.342	-5.29110E-001	-4.62997E-006	0.00000E+000	-5.30000E-001	1.48505E-003	7	...........	-327.66
	671	1.344	-5.39138E-001	-4.61590E-006	0.00000E+000	-5.40000E-001	1.48850E-003	7	...........	-327.66
	672	1.346	-5.49036E-001	-4.59853E-006	0.00000E+000	-5.50000E-001	1.39884E-003	7	...........	-327.66
	673	1.348	-5.59165E-001	-4.57844E-006	0.00000E+000	-5.60000E-001	1.41609E-003	7	...........	-327.66
	674	1.35	-5.69131E-001	-4.55480E-006	0.00000E+000	-5.70000E-001	1.41436E-003	7	...........	-327.66
	675	1.352	-5.79062E-001	-4.52440E-006	0.00000E+000	-5.80000E-001	1.47988E-003	7	...........	-327.66
	676	1.354	-5.89111E-001	-4.49079E-006	0.00000E+000	-5.90000E-001	1.45574E-003	7	...........	-327.66
	677	1.356	-5.99115E-001	-4.44855E-006	0.00000E+000	-6.00000E-001	1.40229E-003	7	...........	-327.66
	678	1.358	-6.09125E-001	-4.40007E-006	0.00000E+000	-6.10000E-001	1.48850E-003	7	...........	-327.66
	679	1.36	-6.19117E-001	-4.34315E-006	0.00000E+000	-6.20000E-001	1.52126E-003	7	...........	-327.66
	680	1.362	-6.29051E-001	-4.27376E-006	0.00000E+000	-6.30000E-001	1.45747E-003	7	...........	-327.66
	681	1.364	-6.39123E-001	-4.19680E-006	0.00000E+000	-6.40000E-001	1.40919E-003	7	...........	-327.66
	682	1.366	-6.49080E-001	-4.10741E-006	0.00000E+000	-6.50000E-001	1.46091E-003	7	...........	-327.66
	683	1.368	-6.59107E-001	-4.00693E-006	0.00000E+000	-6.60000E-001	1.40574E-003	7	...........	-327.66
	684	1.37	-6.69077E-001	-3.89228E-006	0.00000E+000	-6.70000E-001	1.43505E-003	7	...........	-327.66
	685	1.372	-6.79055E-001	-3.76759E-006	0.00000E+000	-6.80000E-001	1.43333E-003	7	...........	-327.66
	686	1.374	-6.89087E-001	-3.63669E-006	0.00000E+000	-6.90000E-001	1.43850E-003	7	...........	-327.66
	687	1.376	-6.99093E-001	-3.49416E-006	0.00000E+000	-7.00000E-001	1.51781E-003	7	...........	-327.66
	688	1.378	-7.09057E-001	-3.33998E-006	0.00000E+000	-7.10000E-001	1.42988E-003	7	...........	-327.66
	689	1.38	-7.19149E-001	-3.18339E-006	0.00000E+000	-7.20000E-001	1.41781E-003	7	...........	-327.66
	690	1.382	-7.29043E-001	-3.02251E-006	0.00000E+000	-7.30000E-001	1.46436E-003	7	...........	-327.66
	691	1.384	-7.39124E-001	-2.85766E-006	0.00000E+000	-7.40000E-001	1.43505E-003	7	...........	-327.66
	692	1.386	-7.49056E-001	-2.69824E-006	0.00000E+000	-7.50000E-001	1.42815E-003	7	...........	-327.66
	693	1.388	-7.59095E-001	-2.53989E-006	0.00000E+000	-7.60000E-001	1.51953E-003	7	...........	-327.66
	694	1.39	-7.69099E-001	-2.37773E-006	0.00000E+000	-7.70000E-001	1.49195E-003	7	...........	-327.66
	695	1.392	-7.79097E-001	-2.22742E-006	0.00000E+000	-7.80000E-001	1.45402E-003	7	...........	-327.66
	696	1.394	-7.89117E-001	-2.08424E-006	0.00000E+000	-7.90000E-001	1.37815E-003	7	...........	-327.66
	697	1.396	-7.99105E-001	-1.94758E-006	0.00000E+000	-8.00000E-001	1.42471E-003	7	...........	-327.66
	698	1.398	-8.09105E-001	-1.82036E-006	0.00000E+000	-8.10000E-001	1.38505E-003	7	...........	-327.66
	699	1.4	-8.19142E-001	-1.70471E-006	0.00000E+000	-8.20000E-001	1.47126E-003	7	...........	-327.66
	700	1.402	-8.29057E-001	-1.60411E-006	0.00000E+000	-8.30000E-001	1.41953E-003	7	...........	-327.66
	701	1.404	-8.39133E-001	-1.50861E-006	0.00000E+000	-8.40000E-001	1.45229E-003	7	...........	-327.66
	702	1.406	-8.49152E-001	-1.42524E-006	0.00000E+000	-8.50000E-001	1.46609E-003	7	...........	-327.66
	703	1.408	-8.59083E-001	-1.34674E-006	0.00000E+000	-8.60000E-001	1.52471E-003	7	...........	-327.66
	704	1.41	-8.69151E-001	-1.28103E-006	0.00000E+000	-8.70000E-001	1.44367E-003	7	...........	-327.66
	705	1.412	-8.79172E-001	-1.22221E-006	0.00000E+000	-8.80000E-001	1.46781E-003	7	...........	-327.66
	706	1.414	-8.89108E-001	-1.16506E-006	0.00000E+000	-8.90000E-001	1.44367E-003	7	...........	-327.66
	707	1.416	-8.99143E-001	-1.11742E-006	0.00000E+000	-9.00000E-001	1.44022E-003	7	...........	-327.66
	708	1.418	-8.90656E-001	-9.81366E-007	0.00000E+000	-8.90000E-001	1.42126E-003	7	...........	-327.66
	709	1.42	-8.80707E-001	-8.78766E-007	0.00000E+000	-8.80000E-001	1.47988E-003	7	...........	-327.66
	710	1.422	-8.70687E-001	-8.02169E-007	0.00000E+000	-8.70000E-001	1.45574E-003	7	...........	-327.66
	711	1.424	-8.60676E-001	-7.34367E-007	0.00000E+000	-8.60000E-001	1.49367E-003	7	...........	-327.66
	712	1.426	-8.50693E-001	-6.77773E-007	0.00000E+000	-8.50000E-001	1.46781E-003	7	...........	-327.66
	713	1.428	-8.40700E-001	-6.26007E-007	0.00000E+000	-8.40000E-001	1.39884E-003	7	...........	-327.66
	714	1.43	-8.30592E-001	-5.78139E-007	0.00000E+000	-8.30000E-001	1.44367E-003	7	...........	-327.66
	715	1.432	-8.20691E-001	-5.34340E-007	0.00000E+000	-8.20000E-001	1.48678E-003	7	...........	-327.66
	716	1.434	-8.10624E-001	-4.86195E-007	0.00000E+000	-8.10000E-001	1.48850E-003	7	...........	-327.66
	717	1.436	-8.00686E-001	-4.46638E-007	0.00000E+000	-8.00000E-001	1.49540E-003	7	...........	-327.66
	718	1.438	-7.90641E-001	-4.02684E-007	0.00000E+000	-7.90000E-001	1.52298E-003	7	...........	-327.66
	719	1.44	-7.80555E-001	-3.55764E-007	0.00000E+000	-7.80000E-001	1.48505E-003	7	...........	-327.66
	720	1.442	-7.70664E-001	-3.11068E-007	0.00000E+000	-7.70000E-001	1.44195E-003	7	...........	-327.66
	721	1.444	-7.60670E-001	-2.61009E-007	0.00000E+000	-7.60000E-001	1.47988E-003	7	...........	-327.66
	722	1.446	-7.50654E-001	-2.08019E-007	0.00000E+000	-7.50000E-001	1.49022E-003	7	...........	-327.66
	723	1.448	-7.40741E-001	-1.50891E-007	0.00000E+000	-7.40000E-001	1.40229E-003	7	...........	-327.66
	724	1.45	-7.30680E-001	-8.91411E-008	0.00000E+000	-7.30000E-001	1.47126E-003	7	...........	-327.66
	725	1.452	-7.20717E-001	-2.14767E-008	0.00000E+000	-7.20000E-001	1.49022E-003	7	...........	-327.66
	726	1.454	-7.10680E-001	5.35163E-008	0.00000E+000	-7.10000E-001	1.50747E-003	7	...........	-327.66
	727	1.456	-7.00703E-001	1.34838E-007	0.00000E+000	-7.00000E-001	1.48333E-003	7	...........	-327.66
	728	1.458	-6.90704E-001	2.25540E-007	0.00000E+000	-6.90000E-001	1.44540E-003	7	...........	-327.66
	729	1.46	-6.80697E-001	3.25105E-007	0.00000E+000	-6.80000E-001	1.51953E-003	7	...........	-327.66
	730	1.462	-6.70643E-001	4.34792E-007	0.00000E+000	-6.70000E-001	1.48850E-003	7	...........	-327.66
	731	1.464	-6.60701E-001	5.56361E-007	0.00000E+000	-6.60000E-001	1.44884E-003	7	...........	-327.66
	732	1.466	-6.50682E-001	6.89189E-007	0.00000E+000	-6.50000E-001	1.44367E-003	7	...........	-327.66
	733	1.468	-6.40730E-001	8.37330E-007	0.00000E+000	-6.40000E-001	1.39540E-003	7	...........	-327.66
	734	1.47	-6.30669E-001	1.00240E-006	0.00000E+000	-6.30000E-001	1.42471E-003	7	...........	-327.66
	735	1.472	-6.20718E-001	1.18076E-006	0.00000E+000	-6.20000E-001	1.38333E-003	7	...........	-327.66
	736	1.474	-6.10743E-001	1.37673E-006	0.00000E+000	-6.10000E-001	1.45574E-003	7	...........	-327.66
	737	1.476	-6.00719E-001	1.59202E-006	0.00000E+000	-6.00000E-001	1.48850E-003	7	...........	-327.66
	738	1.478	-5.90738E-001	1.82514E-006	0.00000E+000	-5.90000E-001	1.51781E-003	7	...........	-327.66
	739	1.48	-5.80698E-001	2.08041E-006	0.00000E+000	-5.80000E-001	1.46953E-003	7	...........	-327.66
	740	1.482	-5.70751E-001	2.35623E-006	0.00000E+000	-5.70000E-001	1.40574E-003	7	...........	-327.66
	741	1.484	-5.60791E-001	2.64882E-006	0.00000E+000	-5.60000E-001	1.40229E-003	7	...........	-327.66
	742	1.486	-5.50655E-001	2.96229E-006	0.00000E+000	-5.50000E-001	1.43505E-003	7	...........	-327.66
	743	1.488	-5.40757E-001	3.29280E-006	0.00000E+000	-5.40000E-001	1.43850E-003	7	...........	-327.66
	744	1.49	-5.30755E-001	3.62868E-006	0.00000E+000	-5.30000E-001	1.48850E-003	7	...........	-327.66
	745	1.492	-5.20758E-001	3.96722E-006	0.00000E+000	-5.20000E-001	1.46781E-003	7	...........	-327.66
	746	1.494	-5.10766E-001	4.29949E-006	0.00000E+000	-5.10000E-001	1.48678E-003	7	...........	-327.66
	747	1.496	-5.00696E-001	4.60027E-006	0.00000E+000	-5.00000E-001	1.41781E-003	7	...........	-327.66
	748	1.498	-4.90760E-001	4.86615E-006	0.00000E+000	-4.90000E-001	1.43850E-003	7	...........	-327.66
	749	1.5	-4.80745E-001	5.08165E-006	0.00000E+000	-4.80000E-001	1.42471E-003	7	...........	-327.66
	750	1.502	-4.70690E-001	5.23805E-006	0.00000E+000	-4.70000E-001	1.39540E-003	7	...........	-327.66
	751	1.504	-4.60779E-001	5.33211E-006	0.00000E+000	-4.60000E-001	1.45747E-003	7	...........	-327.66
	752	1.506	-4.50729E-001	5.36946E-006	0.00000E+000	-4.50000E-001	1.50057E-003	7	...........	-327.66
	753	1.508	-4.40766E-001	5.35908E-006	0.00000E+000	-4.40000E-001	1.44884E-003	7	...........	-327.66
	754	1.51	-4.30756E-001	5.31089E-006	0.00000E+000	-4.30000E-001	1.43160E-003	7	...........	-327.66
	755	1.512	-4.20767E-001	5.23595E-006	0.00000E+000	-4.20000E-001	1.41264E-003	7	...........	-327.66
	756	1.514	-4.10777E-001	5.14718E-006	0.00000E+000	-4.10000E-001	1.41436E-003	7	...........	-327.66
	757	1.516	-4.00779E-001	5.05347E-006	0.00000E+000	-4.00000E-001	1.38160E-003	7	...........	-327.66
	758	1.518	-3.90739E-001	4.95924E-006	0.00000E+000	-3.90000E-001	1.44195E-003	7	...........	-327.66
	759	1.52	-3.80794E-001	4.87110E-006	0.00000E+000	-3.80000E-001	1.40747E-003	7	...........	-327.66
	760	1.522	-3.70767E-001	4.79159E-006	0.00000E+000	-3.70000E-001	1.41781E-003	7	...........	-327.66
	761	1.524	-3.60795E-001	4.72089E-006	0.00000E+000	-3.60000E-001	1.46091E-003	7	...........	-327.66
	762	1.526	-3.50765E-001	4.65837E-006	0.00000E+000	-3.50000E-001	1.52815E-003	7	...........	-327.66
	763	1.528	-3.40797E-001	4.60474E-006	0.00000E+000	-3.40000E-001	1.39884E-003	7	...........	-327.66
	764	1.53	-3.30815E-001	4.55891E-006	0.00000E+000	-3.30000E-001	1.50229E-003	7	...........	-327.66
	765	1.532	-3.20780E-001	4.52247E-006	0.00000E+000	-3.20000E-001	1.45057E-003	7	...........	-327.66
	766	1.534	-3.10761E-001	4.49193E-006	0.00000E+000	-3.10000E-001	1.47988E-003	7	...........	-327.66
	767	1.536	-3.00779E-001	4.46769E-006	0.00000E+000	-3.00000E-001	1.49712E-003	7	...........	-327.66
	768	1.538	-2.90768E-001	4.44812E-006	0.00000E+000	-2.90000E-001	1.49367E-003	7	...........	-327.66
	769	1.54	-2.80766E-001	4.43246E-006	0.00000E+000	-2.80000E-001	1.44540E-003	7	...........	-327.66
	770	1.542	-2.70725E-001	4.41790E-006	0.00000E+000	-2.70000E-001	1.47126E-003	7	...........	-327.66
	771	1.544	-2.60780E-001	4.40340E-006	0.00000E+000	-2.60000E-001	1.52126E-003	7	...........	-327.66
	772	1.546	-2.50795E-001	4.39100E-006	0.00000E+000	-2.50000E-001	1.49884E-003	7	...........	-327.66
	773	1.548	-2.40782E-001	4.37930E-006	0.00000E+000	-2.40000E-001	1.45057E-003	7	...........	-327.66
	774	1.55	-2.30766E-001	4.36729E-006	0.00000E+000	-2.30000E-001	1.52471E-003	7	...........	-327.66
	775	1.552	-2.20726E-001	4.35648E-006	0.00000E+000	-2.20000E-001	1.44022E-003	7	...........	-327.66
	776	1.554	-2.10776E-001	4.34786E-006	0.00000E+000	-2.10000E-001	1.46609E-003	7	...........	-327.66
	777	1.556	-2.00836E-001	4.33803E-006	0.00000E+000	-2.00000E-001	1.48850E-003	7	...........	-327.66
	778	1.558	-1.90733E-001	4.33055E-006	0.00000E+000	-1.90000E-001	1.48160E-003	7	...........	-327.66
	779	1.56	-1.80799E-001	4.32275E-006	0.00000E+000	-1.80000E-001	1.49712E-003	7	...........	-327.66
	780	1.562	-1.70808E-001	4.31727E-006	0.00000E+000	-1.70000E-001	1.50574E-003	7	...........	-327.66
	781	1.564	-1.60790E-001	4.31137E-006	0.00000E+000	-1.60000E-001	1.47988E-003	7	...........	-327.66
	782	1.566	-1.50805E-001	4.30558E-006	0.00000E+000	-1.50000E-001	1.49022E-003	7	...........	-327.66
	783	1.568	-1.40782E-001	4.30208E-006	0.00000E+000	-1.40000E-001	1.52298E-003	7	...........	-327.66
	784	1.57	-1.30822E-001	4.29797E-006	0.00000E+000	-1.30000E-001	1.44540E-003	7	...........	-327.66
	785	1.572	-1.20806E-001	4.29365E-006	0.00000E+000	-1.20000E-001	1.42988E-003	7	...........	-327.66
	786	1.574	-1.10811E-001	4.29021E-006	0.00000E+000	-1.10000E-001	1.46091E-003	7	...........	-327.66
	787	1.576	-1.00800E-001	4.28637E-006	0.00000E+000	-1.00000E-001	1.42643E-003	7	...........	-327.66
	788	1.578	-9.07882E-002	4.28364E-006	0.00000E+000	-9.00000E-002	1.47471E-003	7	...........	-327.66
	789	1.58	-8.08020E-002	4.27928E-006	0.00000E+000	-8.00000E-002	1.46264E-003	7	...........	-327.66
	790	1.582	-7.07693E-002	4.27535E-006	0.00000E+000	-7.00000E-002	1.41781E-003	7	...........	-327.66
	791	1.584	-6.07598E-002	4.27149E-006	0.00000E+000	-6.00000E-002	1.47471E-003	7	...........	-327.66
	792	1.586	-5.08089E-002	4.26885E-006	0.00000E+000	-5.00000E-002	1.47471E-003	7	...........	-327.66
	793	1.588	-4.07787E-002	4.26475E-006	0.00000E+000	-4.00000E-002	1.42988E-003	7	...........	-327.66
	794	1.59	-3.07856E-002	4.26099E-006	0.00000E+000	-3.00000E-002	1.45057E-003	7	...........	-327.66
	795	1.592	-2.07960E-002	4.25481E-006	0.00000E+000	-2.00000E-002	1.41091E-003	7	...........	-327.66
	796	1.594	-1.07882E-002	4.24976E-006	0.00000E+000	-1.00000E-002	1.45919E-003	7	...........	-327.66
	797	1.596	-8.06313E-004	4.24510E-006	0.00000E+000	-1.49012E-008	1.47988E-003	7	...........	-327.66
	798	1.598	9.23420E-003	4.23936E-006	0.00000E+000	9.99999E-003	1.43850E-003	7	...........	-327.66
	799	1.6	1.92368E-002	4.23184E-006	0.00000E+000	2.00000E-002	1.43333E-003	7	...........	-327.66
	800	1.602	2.92066E-002	4.22615E-006	0.00000E+000	3.00000E-002	1.43678E-003	7	...........	-327.66
	801	1.604	3.91333E-002	4.21958E-006	0.00000E+000	4.00000E-002	1.39022E-003	7	...........	-327.66
	802	1.606	4.92170E-002	4.21162E-006	0.00000E+000	5.00000E-002	1.48850E-003	7	...........	-327.66
	803	1.608	5.92161E-002	4.20391E-006	0.00000E+000	6.00000E-002	1.42471E-003	7	...........	-327.66
	804	1.61	6.92394E-002	4.19549E-006	0.00000E+000	7.00000E-002	1.47471E-003	7	...........	-327.66
	805	1.612	7.92066E-002	4.18603E-006	0.00000E+000	8.00000E-002	1.43678E-003	7	...........	-327.66
	806	1.614	8.92626E-002	4.17692E-006	0.00000E+000	9.00000E-002	1.41781E-003	7	...........	-327.66
	807	1.616	9.92152E-002	4.16575E-006	0.00000E+000	1.00000E-001	1.43505E-003	7	...........	-327.66
	808	1.618	1.09214E-001	4.15680E-006	0.00000E+000	1.10000E-001	1.45919E-003	7	...........	-327.66
	809	1.62	1.19207E-001	4.14566E-006	0.00000E+000	1.20000E-001	1.45574E-003	7	...........	-327.66
	810	1.622	1.29239E-001	4.13585E-006	0.00000E+000	1.30000E-001	1.42471E-003	7	...........	-327.66
	811	1.624	1.39260E-001	4.12488E-006	0.00000E+000	1.40000E-001	1.39195E-003	7	...........	-327.66
	812	1.626	1.49248E-001	4.11398E-006	0.00000E+000	1.50000E-001	1.43333E-003	7	...........	-327.66
	813	1.628	1.59213E-001	4.10324E-006	0.00000E+000	1.60000E-001	1.43850E-003	7	...........	-327.66
	814	1.63	1.69263E-001	4.09145E-006	0.00000E+000	1.70000E-001	1.49367E-003	7	...........	-327.66
	815	1.632	1.79208E-001	4.08056E-006	0.00000E+000	1.80000E-001	1.47643E-003	7	...........	-327.66
	816	1.634	1.89224E-001	4.06979E-006	0.00000E+000	1.90000E-001	1.42298E-003	7	...........	-327.66
	817	1.636	1.99221E-001	4.05898E-006	0.00000E+000	2.00000E-001	1.49022E-003	7	...........	-327.66
	818	1.638	2.09195E-001	4.04816E-006	0.00000E+000	2.10000E-001	1.49540E-003	7	...........	-327.66
	819	1.64	2.19201E-001	4.03742E-006	0.00000E+000	2.20000E-001	1.49195E-003	7	...........	-327.66
	820	1.642	2.29208E-001	4.02626E-006	0.00000E+000	2.30000E-001	1.49022E-003	7	...........	-327.66
	821	1.644	2.39199E-001	4.01628E-006	0.00000E+000	2.40000E-001	1.38678E-003	7	...........	-327.66
	822	1.646	2.49235E-001	4.00654E-006	0.00000E+000	2.50000E-001	1.47471E-003	7	...........	-327.66
	823	1.648	2.59191E-001	3.99454E-006	0.00000E+000	2.60000E-001	1.43505E-003	7	...........	-327.66
	824	1.65	2.69222E-001	3.98633E-006	0.00000E+000	2.70000E-001	1.45402E-003	7	...........	-327.66
	825	1.652	2.79175E-001	3.97783E-006	0.00000E+000	2.80000E-001	1.39712E-003	7	...........	-327.66
	826	1.654	2.89190E-001	3.96960E-006	0.00000E+000	2.90000E-001	1.40919E-003	7	...........	-327.66
	827	1.656	2.99193E-001	3.96098E-006	0.00000E+000	3.00000E-001	1.50057E-003	7	...........	-327.66
	828	1.658	3.09185E-001	3.95484E-006	0.00000E+000	3.10000E-001	1.49712E-003	7	...........	-327.66
	829	1.66	3.19189E-001	3.94741E-006	0.00000E+000	3.20000E-001	1.45057E-003	7	...........	-327.66
	830	1.662	3.29208E-001	3.94277E-006	0.00000E+000	3.30000E-001	1.50057E-003	7	...........	-327.66
	831	1.664	3.39199E-001	3.93753E-006	0.00000E+000	3.40000E-001	1.45574E-003	7	...........	-327.66
	832	1.666	3.49242E-001	3.93355E-006	0.00000E+000	3.50000E-001	1.45574E-003	7	...........	-327.66
	833	1.668	3.59183E-001	3.93098E-006	0.00000E+000	3.60000E-001	1.49022E-003	7	...........	-327.66
	834	1.67	3.69214E-001	3.92922E-006	0.00000E+000	3.70000E-001	1.39367E-003	7	...........	-327.66
	835	1.672	3.79193E-001	3.92830E-006	0.00000E+000	3.80000E-001	1.50229E-003	7	...........	-327.66
	836	1.674	3.89159E-001	3.92725E-006	0.00000E+000	3.90000E-001	1.49195E-003	7	...........	-327.66
	837	1.676	3.99194E-001	3.92973E-006	0.00000E+000	4.00000E-001	1.41953E-003	7	...........	-327.66
	838	1.678	4.09173E-001	3.93172E-006	0.00000E+000	4.10000E-001	1.42988E-003	7	...........	-327.66
	839	1.68	4.19195E-001	3.93487E-006	0.00000E+000	4.20000E-001	1.49022E-003	7	...........	-327.66
	840	1.682	4.29184E-001	3.93982E-006	0.00000E+000	4.30000E-001	1.41781E-003	7	...........	-327.66
	841	1.684	4.39155E-001	3.94591E-006	0.00000E+000	4.40000E-001	1.45402E-003	7	...........	-327.66
	842	1.686	4.49224E-001	3.95420E-006	0.00000E+000	4.50000E-001	1.48850E-003	7	...........	-327.66
	843	1.688	4.59202E-001	3.96327E-006	0.00000E+000	4.60000E-001	1.49195E-003	7	...........	-327.66
	844	1.69	4.69152E-001	3.97245E-006	0.00000E+000	4.70000E-001	1.46091E-003	7	...........	-327.66
	845	1.692	4.79172E-001	3.98367E-006	0.00000E+000	4.80000E-001	1.48160E-003	7	...........	-327.66
	846	1.694	4.89170E-001	3.99707E-006	0.00000E+000	4.90000E-001	1.40057E-003	7	...........	-327.66
	847	1.696	4.99210E-001	4.01133E-006	0.00000E+000	5.00000E-001	1.49712E-003	7	...........	-327.66
	848	1.698	5.09147E-001	4.02661E-006	0.00000E+000	5.10000E-001	1.41609E-003	7	...........	-327.66
	849	1.7	5.19135E-001	4.04315E-006	0.00000E+000	5.20000E-001	1.42298E-003	7	...........	-327.66
	850	1.702	5.29201E-001	4.06258E-006	0.00000E+000	5.30000E-001	1.42471E-003	7	...........	-327.66
	851	1.704	5.39170E-001	4.08179E-006	0.00000E+000	5.40000E-001	1.42643E-003	7	...........	-327.66
	852	1.706	5.49199E-001	4.10240E-006	0.00000E+000	5.50000E-001	1.53678E-003	7	...........	-327.66
	853	1.708	5.59193E-001	4.12478E-006	0.00000E+000	5.60000E-001	1.43505E-003	7	...........	-327.66
	854	1.71	5.69175E-001	4.14649E-006	0.00000E+000	5.70000E-001	1.39884E-003	7	...........	-327.66
	855	1.712	5.79186E-001	4.16720E-006	0.00000E+000	5.80000E-001	1.48333E-003	7	...........	-327.66
	856	1.714	5.89163E-001	4.19070E-006	0.00000E+000	5.90000E-001	1.46264E-003	7	...........	-327.66
	857	1.716	5.99165E-001	4.21412E-006	0.00000E+000	6.00000E-001	1.43333E-003	7	...........	-327.66
CURVE4	TABLE
	Pt	T	Vf	Im	Vu	Sig	Ach	IERange	Over	Temp
	#	s	V vs. Ref.	A	V	V	V	#	bits	deg C
	858	1.718	5.90751E-001	2.82858E-006	0.00000E+000	5.90000E-001	1.40574E-003	7	...........	-327.66
	859	1.72	5.80750E-001	2.07888E-006	0.00000E+000	5.80000E-001	1.45402E-003	7	...........	-327.66
	860	1.722	5.70751E-001	1.53372E-006	0.00000E+000	5.70000E-001	1.48333E-003	7	...........	-327.66
	861	1.724	5.60740E-001	1.09085E-006	0.00000E+000	5.60000E-001	1.43505E-003	7	...........	-327.66
	862	1.726	5.50753E-001	7.11830E-007	0.00000E+000	5.50000E-001	1.37126E-003	7	...........	-327.66
	863	1.728	5.40773E-001	3.81199E-007	0.00000E+000	5.40000E-001	1.41264E-003	7	...........	-327.66
	864	1.73	5.30779E-001	8.59173E-008	0.00000E+000	5.30000E-001	1.44884E-003	7	...........	-327.66
	865	1.732	5.20755E-001	-1.81033E-007	0.00000E+000	5.20000E-001	1.48505E-003	7	...........	-327.66
	866	1.734	5.10771E-001	-4.21428E-007	0.00000E+000	5.10000E-001	1.46091E-003	7	...........	-327.66
	867	1.736	5.00814E-001	-6.41596E-007	0.00000E+000	5.00000E-001	1.42126E-003	7	...........	-327.66
	868	1.738	4.90752E-001	-8.44089E-007	0.00000E+000	4.90000E-001	1.42126E-003	7	...........	-327.66
	869	1.74	4.80752E-001	-1.03048E-006	0.00000E+000	4.80000E-001	1.42643E-003	7	...........	-327.66
	870	1.742	4.70770E-001	-1.20288E-006	0.00000E+000	4.70000E-001	1.40057E-003	7	...........	-327.66
	871	1.744	4.60785E-001	-1.36325E-006	0.00000E+000	4.60000E-001	1.40229E-003	7	...........	-327.66
	872	1.746	4.50820E-001	-1.51215E-006	0.00000E+000	4.50000E-001	1.39884E-003	7	...........	-327.66
	873	1.748	4.40754E-001	-1.65296E-006	0.00000E+000	4.40000E-001	1.42298E-003	7	...........	-327.66
	874	1.75	4.30773E-001	-1.78263E-006	0.00000E+000	4.30000E-001	1.39195E-003	7	...........	-327.66
	875	1.752	4.20814E-001	-1.90399E-006	0.00000E+000	4.20000E-001	1.49195E-003	7	...........	-327.66
	876	1.754	4.10773E-001	-2.01797E-006	0.00000E+000	4.10000E-001	1.45574E-003	7	...........	-327.66
	877	1.756	4.00813E-001	-2.12621E-006	0.00000E+000	4.00000E-001	1.49884E-003	7	...........	-327.66
	878	1.758	3.90802E-001	-2.22986E-006	0.00000E+000	3.90000E-001	1.49367E-003	7	...........	-327.66
	879	1.76	3.80807E-001	-2.32503E-006	0.00000E+000	3.80000E-001	1.49884E-003	7	...........	-327.66
	880	1.762	3.70825E-001	-2.41523E-006	0.00000E+000	3.70000E-001	1.46436E-003	7	...........	-327.66
	881	1.764	3.60782E-001	-2.50318E-006	0.00000E+000	3.60000E-001	1.46953E-003	7	...........	-327.66
	882	1.766	3.50814E-001	-2.58598E-006	0.00000E+000	3.50000E-001	1.42988E-003	7	...........	-327.66
	883	1.768	3.40817E-001	-2.66354E-006	0.00000E+000	3.40000E-001	1.50402E-003	7	...........	-327.66
	884	1.77	3.30827E-001	-2.73766E-006	0.00000E+000	3.30000E-001	1.46091E-003	7	...........	-327.66
	885	1.772	3.20792E-001	-2.80886E-006	0.00000E+000	3.20000E-001	1.47643E-003	7	...........	-327.66
	886	1.774	3.10783E-001	-2.87783E-006	0.00000E+000	3.10000E-001	1.48678E-003	7	...........	-327.66
	887	1.776	3.00811E-001	-2.94422E-006	0.00000E+000	3.00000E-001	1.53160E-003	7	...........	-327.66
	888	1.778	2.90810E-001	-3.00669E-006	0.00000E+000	2.90000E-001	1.49540E-003	7	...........	-327.66
	889	1.78	2.80790E-001	-3.06824E-006	0.00000E+000	2.80000E-001	1.50574E-003	7	...........	-327.66
	890	1.782	2.70854E-001	-3.12706E-006	0.00000E+000	2.70000E-001	1.46264E-003	7	...........	-327.66
	891	1.784	2.60792E-001	-3.18375E-006	0.00000E+000	2.60000E-001	1.46781E-003	7	...........	-327.66
	892	1.786	2.50825E-001	-3.23747E-006	0.00000E+000	2.50000E-001	1.44540E-003	7	...........	-327.66
	893	1.788	2.40809E-001	-3.29189E-006	0.00000E+000	2.40000E-001	1.42126E-003	7	...........	-327.66
	894	1.79	2.30791E-001	-3.34271E-006	0.00000E+000	2.30000E-001	1.42988E-003	7	...........	-327.66
	895	1.792	2.20832E-001	-3.39342E-006	0.00000E+000	2.20000E-001	1.48333E-003	7	...........	-327.66
	896	1.794	2.10789E-001	-3.44260E-006	0.00000E+000	2.10000E-001	1.47988E-003	7	...........	-327.66
	897	1.796	2.00825E-001	-3.48990E-006	0.00000E+000	2.00000E-001	1.43333E-003	7	...........	-327.66
	898	1.798	1.90842E-001	-3.53642E-006	0.00000E+000	1.90000E-001	1.41091E-003	7	...........	-327.66
	899	1.8	1.80820E-001	-3.58196E-006	0.00000E+000	1.80000E-001	1.50229E-003	7	...........	-327.66
	900	1.802	1.70895E-001	-3.62638E-006	0.00000E+000	1.70000E-001	1.41953E-003	7	...........	-327.66
