EXPLAIN
TAG	CV
TITLE	LABEL	CV50	Test Identifier
DATE	LABEL	5/9/2025	Date
TIME	LABEL	14:33:39	Time
NOTES	NOTES	1	Notes...
	
PSTAT	PSTAT	REF600P-43058	Potentiostat
VINIT	POTEN	0.00000E+000	T	Initial E (V)
VLIMIT1	POTEN	-9.00000E-001	F	Scan Limit 1 (V)
VLIMIT2	POTEN	6.00000E-001	F	Scan Limit 2 (V)
VFINAL	POTEN	0.00000E+000	T	Final E (V)
SCANRATE	QUANT	4.99999E+001	Scan Rate (mV/s)
STEPSIZE	QUANT	1.00000E+001	Step Size (mV)
CYCLES	IQUANT	3	Cycles (#)
IMODE	SELECTOR	1	I/E Range Mode
IRANGE	QUANT	1.00000E-003	Max Current (mA)
AREA	QUANT	1.00000E+000	Sample Area (cm^2)
EQDELAY	QUANT	5.00000E+000	Equil. Time (s)
IRCOMP	SELECTOR	0	IRComp
PFCOR	QUANT	5.00000E+001	PF Corr. (ohm)
SAMPLINGMODE	SELECTOR	2	Sampling Mode
EOC	QUANT	0.1869809	Open Circuit (V)
ELECTRODETYPE	SELECTOR	0	Electrode Type
STRIPPING	TOGGLE	F	Used for Stripping
SEQUENCER	TOGGLE	TRUE	Run as Sequence
PSTATMODEL	IQUANT	7	Pstat Model
PSTATSECTION	LABEL	REF600P-43058	Pstat Section
PSTATSERIALNO	LABEL	43058	Pstat Serial Number
CTRLMODE	IQUANT	1	Control Mode
ELECTROMETER	IQUANT	0	RE=0 or CS=1
IESTAB	IQUANT	2	I/E Stability
CASPEED	IQUANT	4	Control Amp Speed
CONVENTION	IQUANT	1	Current Convention
ICHRANGE	IQUANT	2	Ich Range
ICHRANGEMODE	TOGGLE	F	Ich Auto Range
ICHOFFSETENABLE	TOGGLE	F	Ich Offset Enable
ICHOFFSET	QUANT	0	Ich Offset (V)
ICHFILTER	IQUANT	2	Ich Filter
VCHRANGE	IQUANT	2	Vch Range
VCHRANGEMODE	TOGGLE	F	Vch Auto Range
VCHOFFSETENABLE	TOGGLE	F	Vch Offset Enable
VCHOFFSET	QUANT	0	Vch Offset (V)
VCHFILTER	IQUANT	2	Vch Filter
ACHRANGE	IQUANT	2	Ach Range
ACHOFFSETENABLE	TOGGLE	F	Ach Offset Enable
ACHOFFSET	QUANT	0	Ach Offset (V)
ACHFILTER	IQUANT	1	Ach Filter
IERANGELOWERLIMIT	IQUANT	1	I/E Range Lower Limit
IERANGEMODE	TOGGLE	F	I/E AutoRange
IERANGE	IQUANT	6	I/E Range
POSFEEDENABLE	TOGGLE	F	Positive Feedback IR Comp
POSFEEDRESISTANCE	QUANT	0	Positive Feedback Resistance (ohm)
ACHSELECT	IQUANT	4	Ach Select
SENSECABLEID	IQUANT	7	Sense Cable ID
PWRCABLEID	IQUANT	7	Power Cable ID
DCCALDATE	LABEL	5/8/2025	DC Calibration Date
ACCALDATE	LABEL	5/8/2025	AC Calibration Date
THERMOSELECT	IQUANT	1	Thermo Select
FRAMEWORKVERSION	LABEL	7.10.4	Framework Version
INSTRUMENTVERSION	LABEL	5.01	Instrument Version
COMMVERSION	LABEL	5.10	Communications Version
CPUPLDVERSION	LABEL	6.00	CPU PLD Version
CTRLPLDVERSION	LABEL	3.21	CTRL PLD Version
PSTATPLDVERSION	LABEL	0.00	PSTAT PLD Version
CURVE1	TABLE
	Pt	T	Vf	Im	Vu	Sig	Ach	IERange	Over	Temp
	#	s	V vs. Ref.	A	V	V	V	#	bits	deg C
	0	0.2	1.86983E-001	4.03933E-010	0.00000E+000	1.87000E-001	1.40911E-003	6	...........	-327.66
	1	0.4	1.77044E-001	-2.98582E-008	0.00000E+000	1.77000E-001	1.41298E-003	6	...........	-327.66
	2	0.6	1.67168E-001	-3.17379E-008	0.00000E+000	1.67000E-001	1.40831E-003	6	...........	-327.66
	3	0.8	1.57033E-001	-3.22680E-008	0.00000E+000	1.57000E-001	1.39663E-003	6	...........	-327.66
	4	1	1.47089E-001	-3.26155E-008	0.00000E+000	1.47000E-001	1.40671E-003	6	...........	-327.66
	5	1.2	1.37064E-001	-3.29118E-008	0.00000E+000	1.37000E-001	1.40601E-003	6	...........	-327.66
	6	1.4	1.27139E-001	-3.31609E-008	0.00000E+000	1.27000E-001	1.41186E-003	6	...........	-327.66
	7	1.6	1.17061E-001	-3.34217E-008	0.00000E+000	1.17000E-001	1.40720E-003	6	...........	-327.66
	8	1.8	1.07042E-001	-3.37522E-008	0.00000E+000	1.07000E-001	1.41717E-003	6	...........	-327.66
	9	2	9.70386E-002	-3.40598E-008	0.00000E+000	9.70000E-002	1.41160E-003	6	...........	-327.66
	10	2.2	8.71065E-002	-3.43444E-008	0.00000E+000	8.70000E-002	1.41023E-003	6	...........	-327.66
	11	2.4	7.70082E-002	-3.46905E-008	0.00000E+000	7.70000E-002	1.40648E-003	6	...........	-327.66
	12	2.6	6.70711E-002	-3.50415E-008	0.00000E+000	6.70000E-002	1.40833E-003	6	...........	-327.66
	13	2.8	5.70199E-002	-3.54762E-008	0.00000E+000	5.70000E-002	1.41081E-003	6	...........	-327.66
	14	3	4.71430E-002	-3.57295E-008	0.00000E+000	4.70000E-002	1.40883E-003	6	...........	-327.66
	15	3.2	3.70621E-002	-3.61375E-008	0.00000E+000	3.70000E-002	1.40831E-003	6	...........	-327.66
	16	3.4	2.70427E-002	-3.65257E-008	0.00000E+000	2.70000E-002	1.41075E-003	6	...........	-327.66
	17	3.6	1.70902E-002	-3.69672E-008	0.00000E+000	1.70000E-002	1.42067E-003	6	...........	-327.66
	18	3.8	7.13574E-003	-3.73540E-008	0.00000E+000	6.99998E-003	1.40951E-003	6	...........	-327.66
	19	4	-3.00418E-003	-3.77689E-008	0.00000E+000	-3.00001E-003	1.40365E-003	6	...........	-327.66
	20	4.2	-1.29282E-002	-3.82401E-008	0.00000E+000	-1.30000E-002	1.41175E-003	6	...........	-327.66
	21	4.4	-2.30079E-002	-3.87221E-008	0.00000E+000	-2.30000E-002	1.40746E-003	6	...........	-327.66
	22	4.6	-3.28643E-002	-3.91953E-008	0.00000E+000	-3.30000E-002	1.41270E-003	6	...........	-327.66
	23	4.8	-4.29701E-002	-3.96380E-008	0.00000E+000	-4.30000E-002	1.41038E-003	6	...........	-327.66
	24	5	-5.29407E-002	-4.01441E-008	0.00000E+000	-5.30000E-002	1.41295E-003	6	...........	-327.66
	25	5.2	-6.29421E-002	-4.06628E-008	0.00000E+000	-6.30000E-002	1.41382E-003	6	...........	-327.66
	26	5.4	-7.28929E-002	-4.11732E-008	0.00000E+000	-7.30000E-002	1.41093E-003	6	...........	-327.66
	27	5.6	-8.29847E-002	-4.17349E-008	0.00000E+000	-8.30000E-002	1.40543E-003	6	...........	-327.66
	28	5.8	-9.29422E-002	-4.22373E-008	0.00000E+000	-9.30000E-002	1.40421E-003	6	...........	-327.66
	29	6	-1.03032E-001	-4.28630E-008	0.00000E+000	-1.03000E-001	1.40621E-003	6	...........	-327.66
	30	6.2	-1.12836E-001	-4.33906E-008	0.00000E+000	-1.13000E-001	1.41018E-003	6	...........	-327.66
	31	6.4	-1.23019E-001	-4.40290E-008	0.00000E+000	-1.23000E-001	1.41435E-003	6	...........	-327.66
	32	6.6	-1.32984E-001	-4.45399E-008	0.00000E+000	-1.33000E-001	1.41311E-003	6	...........	-327.66
	33	6.8	-1.42947E-001	-4.52168E-008	0.00000E+000	-1.43000E-001	1.41598E-003	6	...........	-327.66
	34	7	-1.52915E-001	-4.57588E-008	0.00000E+000	-1.53000E-001	1.41158E-003	6	...........	-327.66
	35	7.2	-1.63001E-001	-4.64036E-008	0.00000E+000	-1.63000E-001	1.40590E-003	6	...........	-327.66
	36	7.4	-1.72985E-001	-4.70566E-008	0.00000E+000	-1.73000E-001	1.40801E-003	6	...........	-327.66
	37	7.6	-1.82996E-001	-4.77336E-008	0.00000E+000	-1.83000E-001	1.40701E-003	6	...........	-327.66
	38	7.8	-1.92908E-001	-4.83820E-008	0.00000E+000	-1.93000E-001	1.41842E-003	6	...........	-327.66
	39	8	-2.03013E-001	-4.90635E-008	0.00000E+000	-2.03000E-001	1.40476E-003	6	...........	-327.66
	40	8.2	-2.12912E-001	-4.98130E-008	0.00000E+000	-2.13000E-001	1.41368E-003	6	...........	-327.66
	41	8.4	-2.22941E-001	-5.05455E-008	0.00000E+000	-2.23000E-001	1.41006E-003	6	...........	-327.66
	42	8.6	-2.32858E-001	-5.12285E-008	0.00000E+000	-2.33000E-001	1.41602E-003	6	...........	-327.66
	43	8.8	-2.42939E-001	-5.19563E-008	0.00000E+000	-2.43000E-001	1.40218E-003	6	...........	-327.66
	44	9	-2.52955E-001	-5.26868E-008	0.00000E+000	-2.53000E-001	1.40606E-003	6	...........	-327.66
	45	9.2	-2.62924E-001	-5.34839E-008	0.00000E+000	-2.63000E-001	1.40391E-003	6	...........	-327.66
	46	9.4	-2.72857E-001	-5.41778E-008	0.00000E+000	-2.73000E-001	1.40970E-003	6	...........	-327.66
	47	9.6	-2.82929E-001	-5.49531E-008	0.00000E+000	-2.83000E-001	1.40956E-003	6	...........	-327.66
	48	9.8	-2.92880E-001	-5.57004E-008	0.00000E+000	-2.93000E-001	1.41583E-003	6	...........	-327.66
	49	10	-3.02953E-001	-5.66256E-008	0.00000E+000	-3.03000E-001	1.41170E-003	6	...........	-327.66
	50	10.2	-3.12859E-001	-5.73904E-008	0.00000E+000	-3.13000E-001	1.41640E-003	6	...........	-327.66
	51	10.4	-3.22943E-001	-5.82734E-008	0.00000E+000	-3.23000E-001	1.40710E-003	6	...........	-327.66
	52	10.6	-3.32962E-001	-5.91007E-008	0.00000E+000	-3.33000E-001	1.40651E-003	6	...........	-327.66
	53	10.8	-3.42948E-001	-6.00394E-008	0.00000E+000	-3.43000E-001	1.41195E-003	6	...........	-327.66
	54	11	-3.52894E-001	-6.09914E-008	0.00000E+000	-3.53000E-001	1.42038E-003	6	...........	-327.66
	55	11.2	-3.62936E-001	-6.19103E-008	0.00000E+000	-3.63000E-001	1.41000E-003	6	...........	-327.66
	56	11.4	-3.72877E-001	-6.28701E-008	0.00000E+000	-3.73000E-001	1.42470E-003	6	...........	-327.66
	57	11.6	-3.82959E-001	-6.38786E-008	0.00000E+000	-3.83000E-001	1.41667E-003	6	...........	-327.66
	58	11.8	-3.92838E-001	-6.48444E-008	0.00000E+000	-3.93000E-001	1.42228E-003	6	...........	-327.66
	59	12	-4.02923E-001	-6.57957E-008	0.00000E+000	-4.03000E-001	1.40728E-003	6	...........	-327.66
	60	12.2	-4.12877E-001	-6.67195E-008	0.00000E+000	-4.13000E-001	1.41380E-003	6	...........	-327.66
	61	12.4	-4.22883E-001	-6.77421E-008	0.00000E+000	-4.23000E-001	1.41797E-003	6	...........	-327.66
	62	12.6	-4.32803E-001	-6.86383E-008	0.00000E+000	-4.33000E-001	1.41842E-003	6	...........	-327.66
	63	12.8	-4.42907E-001	-6.96513E-008	0.00000E+000	-4.43000E-001	1.42130E-003	6	...........	-327.66
	64	13	-4.52829E-001	-7.05712E-008	0.00000E+000	-4.53000E-001	1.41677E-003	6	...........	-327.66
	65	13.2	-4.62889E-001	-7.16576E-008	0.00000E+000	-4.63000E-001	1.42100E-003	6	...........	-327.66
	66	13.4	-4.72777E-001	-7.26561E-008	0.00000E+000	-4.73000E-001	1.41538E-003	6	...........	-327.66
	67	13.6	-4.82894E-001	-7.37245E-008	0.00000E+000	-4.83000E-001	1.40791E-003	6	...........	-327.66
	68	13.8	-4.92822E-001	-7.48493E-008	0.00000E+000	-4.93000E-001	1.41387E-003	6	...........	-327.66
	69	14	-5.02879E-001	-7.58776E-008	0.00000E+000	-5.03000E-001	1.41750E-003	6	...........	-327.66
	70	14.2	-5.12808E-001	-7.69932E-008	0.00000E+000	-5.13000E-001	1.42370E-003	6	...........	-327.66
	71	14.4	-5.22899E-001	-7.81616E-008	0.00000E+000	-5.23000E-001	1.41867E-003	6	...........	-327.66
	72	14.6	-5.32866E-001	-7.93593E-008	0.00000E+000	-5.33000E-001	1.42363E-003	6	...........	-327.66
	73	14.8	-5.42942E-001	-8.04429E-008	0.00000E+000	-5.43000E-001	1.42010E-003	6	...........	-327.66
	74	15	-5.52824E-001	-8.16247E-008	0.00000E+000	-5.53000E-001	1.41747E-003	6	...........	-327.66
	75	15.2	-5.62937E-001	-8.27767E-008	0.00000E+000	-5.63000E-001	1.41258E-003	6	...........	-327.66
	76	15.4	-5.72826E-001	-8.39438E-008	0.00000E+000	-5.73000E-001	1.41875E-003	6	...........	-327.66
	77	15.6	-5.82897E-001	-8.51370E-008	0.00000E+000	-5.83000E-001	1.42422E-003	6	...........	-327.66
	78	15.8	-5.92805E-001	-8.60945E-008	0.00000E+000	-5.93000E-001	1.41970E-003	6	...........	-327.66
	79	16	-6.02877E-001	-8.71954E-008	0.00000E+000	-6.03000E-001	1.42884E-003	6	...........	-327.66
	80	16.2	-6.12857E-001	-8.81610E-008	0.00000E+000	-6.13000E-001	1.41473E-003	6	...........	-327.66
	81	16.4	-6.22877E-001	-8.91692E-008	0.00000E+000	-6.23000E-001	1.42192E-003	6	...........	-327.66
	82	16.6	-6.32783E-001	-8.99740E-008	0.00000E+000	-6.33000E-001	1.42524E-003	6	...........	-327.66
	83	16.8	-6.42869E-001	-9.06936E-008	0.00000E+000	-6.43000E-001	1.42449E-003	6	...........	-327.66
	84	17	-6.52815E-001	-9.13436E-008	0.00000E+000	-6.53000E-001	1.42422E-003	6	...........	-327.66
	85	17.2	-6.62886E-001	-9.18579E-008	0.00000E+000	-6.63000E-001	1.41360E-003	6	...........	-327.66
	86	17.4	-6.72785E-001	-9.21122E-008	0.00000E+000	-6.73000E-001	1.42555E-003	6	...........	-327.66
	87	17.6	-6.82840E-001	-9.20405E-008	0.00000E+000	-6.83000E-001	1.42040E-003	6	...........	-327.66
	88	17.8	-6.92837E-001	-9.16267E-008	0.00000E+000	-6.93000E-001	1.42540E-003	6	...........	-327.66
	89	18	-7.02856E-001	-9.07535E-008	0.00000E+000	-7.03000E-001	1.41443E-003	6	...........	-327.66
	90	18.2	-7.12793E-001	-8.93002E-008	0.00000E+000	-7.13000E-001	1.41995E-003	6	...........	-327.66
	91	18.4	-7.22872E-001	-8.73022E-008	0.00000E+000	-7.23000E-001	1.41453E-003	6	...........	-327.66
	92	18.6	-7.32827E-001	-8.46860E-008	0.00000E+000	-7.33000E-001	1.41697E-003	6	...........	-327.66
	93	18.8	-7.42885E-001	-8.16062E-008	0.00000E+000	-7.43000E-001	1.42028E-003	6	...........	-327.66
	94	19	-7.52795E-001	-7.80003E-008	0.00000E+000	-7.53000E-001	1.41507E-003	6	...........	-327.66
	95	19.2	-7.62881E-001	-7.40829E-008	0.00000E+000	-7.63000E-001	1.41490E-003	6	...........	-327.66
	96	19.4	-7.72849E-001	-6.99440E-008	0.00000E+000	-7.73000E-001	1.41815E-003	6	...........	-327.66
	97	19.6	-7.82848E-001	-6.55659E-008	0.00000E+000	-7.83000E-001	1.41893E-003	6	...........	-327.66
	98	19.8	-7.92805E-001	-6.12419E-008	0.00000E+000	-7.93000E-001	1.42502E-003	6	...........	-327.66
	99	20	-8.02871E-001	-5.69567E-008	0.00000E+000	-8.03000E-001	1.41068E-003	6	...........	-327.66
	100	20.2	-8.12803E-001	-5.29242E-008	0.00000E+000	-8.13000E-001	1.41503E-003	6	...........	-327.66
	101	20.4	-8.22896E-001	-4.91234E-008	0.00000E+000	-8.23000E-001	1.41593E-003	6	...........	-327.66
	102	20.6	-8.32805E-001	-4.56808E-008	0.00000E+000	-8.33000E-001	1.42534E-003	6	...........	-327.66
	103	20.8	-8.42885E-001	-4.24520E-008	0.00000E+000	-8.43000E-001	1.41942E-003	6	...........	-327.66
	104	21	-8.52829E-001	-3.95737E-008	0.00000E+000	-8.53000E-001	1.42343E-003	6	...........	-327.66
	105	21.2	-8.62874E-001	-3.69339E-008	0.00000E+000	-8.63000E-001	1.42405E-003	6	...........	-327.66
	106	21.4	-8.72777E-001	-3.46521E-008	0.00000E+000	-8.73000E-001	1.42502E-003	6	...........	-327.66
	107	21.6	-8.82857E-001	-3.27602E-008	0.00000E+000	-8.83000E-001	1.41803E-003	6	...........	-327.66
	108	21.8	-8.92803E-001	-3.09686E-008	0.00000E+000	-8.93000E-001	1.41443E-003	6	...........	-327.66
	109	22	-9.02882E-001	-2.93322E-008	0.00000E+000	-9.03000E-001	1.41508E-003	6	...........	-327.66
	110	22.2	-8.92965E-001	-2.52325E-008	0.00000E+000	-8.93000E-001	1.42345E-003	6	...........	-327.66
	111	22.4	-8.82918E-001	-2.31436E-008	0.00000E+000	-8.83000E-001	1.41345E-003	6	...........	-327.66
	112	22.6	-8.72821E-001	-2.14597E-008	0.00000E+000	-8.73000E-001	1.42128E-003	6	...........	-327.66
	113	22.8	-8.62923E-001	-1.99417E-008	0.00000E+000	-8.63000E-001	1.42122E-003	6	...........	-327.66
	114	23	-8.52931E-001	-1.84988E-008	0.00000E+000	-8.53000E-001	1.42057E-003	6	...........	-327.66
	115	23.2	-8.42925E-001	-1.70600E-008	0.00000E+000	-8.43000E-001	1.41015E-003	6	...........	-327.66
	116	23.4	-8.32820E-001	-1.56119E-008	0.00000E+000	-8.33000E-001	1.42050E-003	6	...........	-327.66
	117	23.6	-8.22889E-001	-1.41229E-008	0.00000E+000	-8.23000E-001	1.41320E-003	6	...........	-327.66
	118	23.8	-8.12971E-001	-1.23815E-008	0.00000E+000	-8.13000E-001	1.41787E-003	6	...........	-327.66
	119	24	-8.02877E-001	-1.04932E-008	0.00000E+000	-8.03000E-001	1.41497E-003	6	...........	-327.66
	120	24.2	-7.92841E-001	-8.32817E-009	0.00000E+000	-7.93000E-001	1.42177E-003	6	...........	-327.66
	121	24.4	-7.82870E-001	-5.89680E-009	0.00000E+000	-7.83000E-001	1.42542E-003	6	...........	-327.66
	122	24.6	-7.72888E-001	-3.04836E-009	0.00000E+000	-7.73000E-001	1.41992E-003	6	...........	-327.66
	123	24.8	-7.62921E-001	1.70942E-010	0.00000E+000	-7.63000E-001	1.42235E-003	6	...........	-327.66
	124	25	-7.52827E-001	3.80031E-009	0.00000E+000	-7.53000E-001	1.42040E-003	6	...........	-327.66
	125	25.2	-7.42921E-001	7.76339E-009	0.00000E+000	-7.43000E-001	1.41832E-003	6	...........	-327.66
	126	25.4	-7.32920E-001	1.20421E-008	0.00000E+000	-7.33000E-001	1.41893E-003	6	...........	-327.66
	127	25.6	-7.22910E-001	1.63645E-008	0.00000E+000	-7.23000E-001	1.41153E-003	6	...........	-327.66
	128	25.8	-7.12858E-001	2.04821E-008	0.00000E+000	-7.13000E-001	1.42105E-003	6	...........	-327.66
	129	26	-7.02887E-001	2.41330E-008	0.00000E+000	-7.03000E-001	1.41255E-003	6	...........	-327.66
	130	26.2	-6.92889E-001	2.68105E-008	0.00000E+000	-6.93000E-001	1.42370E-003	6	...........	-327.66
	131	26.4	-6.82904E-001	2.84495E-008	0.00000E+000	-6.83000E-001	1.41755E-003	6	...........	-327.66
	132	26.6	-6.72842E-001	2.91232E-008	0.00000E+000	-6.73000E-001	1.41326E-003	6	...........	-327.66
	133	26.8	-6.62911E-001	2.93276E-008	0.00000E+000	-6.63000E-001	1.41705E-003	6	...........	-327.66
	134	27	-6.52895E-001	2.94226E-008	0.00000E+000	-6.53000E-001	1.41533E-003	6	...........	-327.66
	135	27.2	-6.42890E-001	2.95566E-008	0.00000E+000	-6.43000E-001	1.41477E-003	6	...........	-327.66
	136	27.4	-6.32844E-001	2.96684E-008	0.00000E+000	-6.33000E-001	1.42022E-003	6	...........	-327.66
	137	27.6	-6.22894E-001	2.98281E-008	0.00000E+000	-6.23000E-001	1.41712E-003	6	...........	-327.66
	138	27.8	-6.12956E-001	3.01370E-008	0.00000E+000	-6.13000E-001	1.42000E-003	6	...........	-327.66
	139	28	-6.02941E-001	3.04783E-008	0.00000E+000	-6.03000E-001	1.42025E-003	6	...........	-327.66
	140	28.2	-5.92863E-001	3.08232E-008	0.00000E+000	-5.93000E-001	1.41467E-003	6	...........	-327.66
	141	28.4	-5.82963E-001	3.11691E-008	0.00000E+000	-5.83000E-001	1.41270E-003	6	...........	-327.66
	142	28.6	-5.72938E-001	3.16605E-008	0.00000E+000	-5.73000E-001	1.40986E-003	6	...........	-327.66
	143	28.8	-5.62992E-001	3.21234E-008	0.00000E+000	-5.63000E-001	1.40648E-003	6	...........	-327.66
	144	29	-5.52894E-001	3.25699E-008	0.00000E+000	-5.53000E-001	1.40983E-003	6	...........	-327.66
	145	29.2	-5.42956E-001	3.30339E-008	0.00000E+000	-5.43000E-001	1.42077E-003	6	...........	-327.66
	146	29.4	-5.32989E-001	3.35205E-008	0.00000E+000	-5.33000E-001	1.42132E-003	6	...........	-327.66
	147	29.6	-5.22973E-001	3.40676E-008	0.00000E+000	-5.23000E-001	1.41735E-003	6	...........	-327.66
	148	29.8	-5.12878E-001	3.46767E-008	0.00000E+000	-5.13000E-001	1.41762E-003	6	...........	-327.66
	149	30	-5.02954E-001	3.52638E-008	0.00000E+000	-5.03000E-001	1.41567E-003	6	...........	-327.66
	150	30.2	-4.92897E-001	3.58135E-008	0.00000E+000	-4.93000E-001	1.41405E-003	6	...........	-327.66
	151	30.4	-4.82958E-001	3.63938E-008	0.00000E+000	-4.83000E-001	1.40841E-003	6	...........	-327.66
	152	30.6	-4.72849E-001	3.71160E-008	0.00000E+000	-4.73000E-001	1.41932E-003	6	...........	-327.66
	153	30.8	-4.62955E-001	3.77463E-008	0.00000E+000	-4.63000E-001	1.41872E-003	6	...........	-327.66
	154	31	-4.52915E-001	3.84114E-008	0.00000E+000	-4.53000E-001	1.42190E-003	6	...........	-327.66
	155	31.2	-4.42963E-001	3.90548E-008	0.00000E+000	-4.43000E-001	1.41935E-003	6	...........	-327.66
	156	31.4	-4.32855E-001	3.97297E-008	0.00000E+000	-4.33000E-001	1.41725E-003	6	...........	-327.66
	157	31.6	-4.22918E-001	4.03551E-008	0.00000E+000	-4.23000E-001	1.42622E-003	6	...........	-327.66
	158	31.8	-4.12922E-001	4.11636E-008	0.00000E+000	-4.13000E-001	1.41750E-003	6	...........	-327.66
	159	32	-4.02991E-001	4.18029E-008	0.00000E+000	-4.03000E-001	1.41733E-003	6	...........	-327.66
	160	32.2	-3.92876E-001	4.25166E-008	0.00000E+000	-3.93000E-001	1.42343E-003	6	...........	-327.66
	161	32.4	-3.82997E-001	4.31562E-008	0.00000E+000	-3.83000E-001	1.42058E-003	6	...........	-327.66
	162	32.6	-3.72950E-001	4.38659E-008	0.00000E+000	-3.73000E-001	1.42258E-003	6	...........	-327.66
	163	32.8	-3.62972E-001	4.45310E-008	0.00000E+000	-3.63000E-001	1.41615E-003	6	...........	-327.66
	164	33	-3.52935E-001	4.51206E-008	0.00000E+000	-3.53000E-001	1.42197E-003	6	...........	-327.66
	165	33.2	-3.43010E-001	4.56838E-008	0.00000E+000	-3.43000E-001	1.40911E-003	6	...........	-327.66
	166	33.4	-3.32974E-001	4.62802E-008	0.00000E+000	-3.33000E-001	1.41298E-003	6	...........	-327.66
	167	33.6	-3.22996E-001	4.68411E-008	0.00000E+000	-3.23000E-001	1.41081E-003	6	...........	-327.66
	168	33.8	-3.12892E-001	4.73030E-008	0.00000E+000	-3.13000E-001	1.42028E-003	6	...........	-327.66
	169	34	-3.02996E-001	4.77051E-008	0.00000E+000	-3.03000E-001	1.42157E-003	6	...........	-327.66
	170	34.2	-2.93097E-001	4.82537E-008	0.00000E+000	-2.93000E-001	1.42469E-003	6	...........	-327.66
	171	34.4	-2.82954E-001	4.86596E-008	0.00000E+000	-2.83000E-001	1.41918E-003	6	...........	-327.66
	172	34.6	-2.72892E-001	4.90304E-008	0.00000E+000	-2.73000E-001	1.42050E-003	6	...........	-327.66
	173	34.8	-2.62959E-001	4.92484E-008	0.00000E+000	-2.63000E-001	1.41408E-003	6	...........	-327.66
	174	35	-2.53005E-001	4.96462E-008	0.00000E+000	-2.53000E-001	1.41430E-003	6	...........	-327.66
	175	35.2	-2.42967E-001	5.00764E-008	0.00000E+000	-2.43000E-001	1.40983E-003	6	...........	-327.66
	176	35.4	-2.32874E-001	5.03369E-008	0.00000E+000	-2.33000E-001	1.41843E-003	6	...........	-327.66
	177	35.6	-2.22980E-001	5.06320E-008	0.00000E+000	-2.23000E-001	1.41910E-003	6	...........	-327.66
	178	35.8	-2.12950E-001	5.08480E-008	0.00000E+000	-2.13000E-001	1.41335E-003	6	...........	-327.66
	179	36	-2.03057E-001	5.11392E-008	0.00000E+000	-2.03000E-001	1.41340E-003	6	...........	-327.66
	180	36.2	-1.92933E-001	5.15471E-008	0.00000E+000	-1.93000E-001	1.42128E-003	6	...........	-327.66
	181	36.4	-1.83012E-001	5.16781E-008	0.00000E+000	-1.83000E-001	1.41173E-003	6	...........	-327.66
	182	36.6	-1.73030E-001	5.18196E-008	0.00000E+000	-1.73000E-001	1.41156E-003	6	...........	-327.66
	183	36.8	-1.63026E-001	5.21044E-008	0.00000E+000	-1.63000E-001	1.40311E-003	6	...........	-327.66
	184	37	-1.52946E-001	5.24598E-008	0.00000E+000	-1.53000E-001	1.41563E-003	6	...........	-327.66
	185	37.2	-1.42976E-001	5.25931E-008	0.00000E+000	-1.43000E-001	1.41977E-003	6	...........	-327.66
	186	37.4	-1.33015E-001	5.28629E-008	0.00000E+000	-1.33000E-001	1.41553E-003	6	...........	-327.66
	187	37.6	-1.23065E-001	5.27967E-008	0.00000E+000	-1.23000E-001	1.40801E-003	6	...........	-327.66
	188	37.8	-1.12879E-001	5.30313E-008	0.00000E+000	-1.13000E-001	1.41276E-003	6	...........	-327.66
	189	38	-1.03061E-001	5.32759E-008	0.00000E+000	-1.03000E-001	1.41443E-003	6	...........	-327.66
	190	38.2	-9.29695E-002	5.34802E-008	0.00000E+000	-9.30000E-002	1.41495E-003	6	...........	-327.66
	191	38.4	-8.30197E-002	5.35387E-008	0.00000E+000	-8.30000E-002	1.40891E-003	6	...........	-327.66
	192	38.6	-7.29371E-002	5.36807E-008	0.00000E+000	-7.30000E-002	1.41447E-003	6	...........	-327.66
	193	38.8	-6.29968E-002	5.38081E-008	0.00000E+000	-6.30000E-002	1.41653E-003	6	...........	-327.66
	194	39	-5.29568E-002	5.39441E-008	0.00000E+000	-5.30000E-002	1.41950E-003	6	...........	-327.66
	195	39.2	-4.30144E-002	5.40788E-008	0.00000E+000	-4.30000E-002	1.41682E-003	6	...........	-327.66
	196	39.4	-3.28896E-002	5.41973E-008	0.00000E+000	-3.30000E-002	1.41417E-003	6	...........	-327.66
	197	39.6	-2.30475E-002	5.42755E-008	0.00000E+000	-2.30000E-002	1.40805E-003	6	...........	-327.66
	198	39.8	-1.29528E-002	5.44535E-008	0.00000E+000	-1.30000E-002	1.41742E-003	6	...........	-327.66
	199	40	-3.03612E-003	5.45541E-008	0.00000E+000	-3.00001E-003	1.40546E-003	6	...........	-327.66
	200	40.2	7.09745E-003	5.46366E-008	0.00000E+000	6.99998E-003	1.41116E-003	6	...........	-327.66
	201	40.4	1.70963E-002	5.46961E-008	0.00000E+000	1.70000E-002	1.41383E-003	6	...........	-327.66
	202	40.6	2.70141E-002	5.48186E-008	0.00000E+000	2.70000E-002	1.41313E-003	6	...........	-327.66
	203	40.8	3.70116E-002	5.49334E-008	0.00000E+000	3.70000E-002	1.41460E-003	6	...........	-327.66
	204	41	4.70942E-002	5.51119E-008	0.00000E+000	4.70000E-002	1.40388E-003	6	...........	-327.66
	205	41.2	5.69869E-002	5.51604E-008	0.00000E+000	5.70000E-002	1.41223E-003	6	...........	-327.66
	206	41.4	6.70428E-002	5.53833E-008	0.00000E+000	6.70000E-002	1.40930E-003	6	...........	-327.66
	207	41.6	7.70039E-002	5.54484E-008	0.00000E+000	7.70000E-002	1.40848E-003	6	...........	-327.66
	208	41.8	8.70548E-002	5.56317E-008	0.00000E+000	8.70000E-002	1.40928E-003	6	...........	-327.66
	209	42	9.70400E-002	5.57118E-008	0.00000E+000	9.70000E-002	1.41570E-003	6	...........	-327.66
	210	42.2	1.07011E-001	5.59165E-008	0.00000E+000	1.07000E-001	1.41845E-003	6	...........	-327.66
	211	42.4	1.16945E-001	5.61136E-008	0.00000E+000	1.17000E-001	1.41160E-003	6	...........	-327.66
	212	42.6	1.27100E-001	5.62714E-008	0.00000E+000	1.27000E-001	1.41270E-003	6	...........	-327.66
	213	42.8	1.37019E-001	5.63783E-008	0.00000E+000	1.37000E-001	1.41313E-003	6	...........	-327.66
	214	43	1.47063E-001	5.65914E-008	0.00000E+000	1.47000E-001	1.41338E-003	6	...........	-327.66
	215	43.2	1.57015E-001	5.68094E-008	0.00000E+000	1.57000E-001	1.40698E-003	6	...........	-327.66
	216	43.4	1.67115E-001	5.68763E-008	0.00000E+000	1.67000E-001	1.41221E-003	6	...........	-327.66
	217	43.6	1.77050E-001	5.69631E-008	0.00000E+000	1.77000E-001	1.42108E-003	6	...........	-327.66
	218	43.8	1.87006E-001	5.71100E-008	0.00000E+000	1.87000E-001	1.41820E-003	6	...........	-327.66
	219	44	1.97046E-001	5.72073E-008	0.00000E+000	1.97000E-001	1.41537E-003	6	...........	-327.66
	220	44.2	2.07045E-001	5.73338E-008	0.00000E+000	2.07000E-001	1.41008E-003	6	...........	-327.66
	221	44.4	2.16976E-001	5.73361E-008	0.00000E+000	2.17000E-001	1.41392E-003	6	...........	-327.66
	222	44.6	2.27007E-001	5.74850E-008	0.00000E+000	2.27000E-001	1.41166E-003	6	...........	-327.66
	223	44.8	2.36983E-001	5.75556E-008	0.00000E+000	2.37000E-001	1.40373E-003	6	...........	-327.66
	224	45	2.47057E-001	5.76541E-008	0.00000E+000	2.47000E-001	1.41947E-003	6	...........	-327.66
	225	45.2	2.56965E-001	5.77134E-008	0.00000E+000	2.57000E-001	1.41502E-003	6	...........	-327.66
	226	45.4	2.66958E-001	5.78035E-008	0.00000E+000	2.67000E-001	1.42163E-003	6	...........	-327.66
	227	45.6	2.76976E-001	5.79454E-008	0.00000E+000	2.77000E-001	1.41473E-003	6	...........	-327.66
	228	45.8	2.86991E-001	5.80677E-008	0.00000E+000	2.87000E-001	1.41497E-003	6	...........	-327.66
	229	46	2.96985E-001	5.81602E-008	0.00000E+000	2.97000E-001	1.40601E-003	6	...........	-327.66
	230	46.2	3.06946E-001	5.83114E-008	0.00000E+000	3.07000E-001	1.41600E-003	6	...........	-327.66
	231	46.4	3.16962E-001	5.85020E-008	0.00000E+000	3.17000E-001	1.40900E-003	6	...........	-327.66
	232	46.6	3.27045E-001	5.86731E-008	0.00000E+000	3.27000E-001	1.41563E-003	6	...........	-327.66
	233	46.8	3.36970E-001	5.88312E-008	0.00000E+000	3.37000E-001	1.41933E-003	6	...........	-327.66
	234	47	3.47012E-001	5.90955E-008	0.00000E+000	3.47000E-001	1.41947E-003	6	...........	-327.66
	235	47.2	3.56989E-001	5.92995E-008	0.00000E+000	3.57000E-001	1.41615E-003	6	...........	-327.66
	236	47.4	3.67003E-001	5.96227E-008	0.00000E+000	3.67000E-001	1.41788E-003	6	...........	-327.66
	237	47.6	3.76999E-001	5.98431E-008	0.00000E+000	3.77000E-001	1.41440E-003	6	...........	-327.66
	238	47.8	3.86937E-001	6.01652E-008	0.00000E+000	3.87000E-001	1.41266E-003	6	...........	-327.66
	239	48	3.96971E-001	6.05114E-008	0.00000E+000	3.97000E-001	1.40843E-003	6	...........	-327.66
	240	48.2	4.07031E-001	6.09088E-008	0.00000E+000	4.07000E-001	1.41655E-003	6	...........	-327.66
	241	48.4	4.16912E-001	6.12450E-008	0.00000E+000	4.17000E-001	1.41930E-003	6	...........	-327.66
	242	48.6	4.26966E-001	6.16278E-008	0.00000E+000	4.27000E-001	1.41835E-003	6	...........	-327.66
	243	48.8	4.36921E-001	6.20706E-008	0.00000E+000	4.37000E-001	1.41218E-003	6	...........	-327.66
	244	49	4.46979E-001	6.25415E-008	0.00000E+000	4.47000E-001	1.41997E-003	6	...........	-327.66
	245	49.2	4.56952E-001	6.29450E-008	0.00000E+000	4.57000E-001	1.41723E-003	6	...........	-327.66
	246	49.4	4.66888E-001	6.33793E-008	0.00000E+000	4.67000E-001	1.41572E-003	6	...........	-327.66
	247	49.6	4.76924E-001	6.39117E-008	0.00000E+000	4.77000E-001	1.41048E-003	6	...........	-327.66
	248	49.8	4.86968E-001	6.44400E-008	0.00000E+000	4.87000E-001	1.41473E-003	6	...........	-327.66
	249	50	4.96940E-001	6.48996E-008	0.00000E+000	4.97000E-001	1.42142E-003	6	...........	-327.66
	250	50.2	5.06924E-001	6.55150E-008	0.00000E+000	5.07000E-001	1.41968E-003	6	...........	-327.66
	251	50.4	5.16904E-001	6.60325E-008	0.00000E+000	5.17000E-001	1.41128E-003	6	...........	-327.66
	252	50.6	5.27109E-001	6.66426E-008	0.00000E+000	5.27000E-001	1.41050E-003	6	...........	-327.66
	253	50.8	5.36925E-001	6.71855E-008	0.00000E+000	5.37000E-001	1.41547E-003	6	...........	-327.66
	254	51	5.46932E-001	6.79086E-008	0.00000E+000	5.47000E-001	1.41385E-003	6	...........	-327.66
	255	51.2	5.56932E-001	6.85860E-008	0.00000E+000	5.57000E-001	1.40865E-003	6	...........	-327.66
	256	51.4	5.66987E-001	6.93523E-008	0.00000E+000	5.67000E-001	1.41603E-003	6	...........	-327.66
	257	51.6	5.76931E-001	7.01435E-008	0.00000E+000	5.77000E-001	1.42005E-003	6	...........	-327.66
	258	51.8	5.86942E-001	7.10113E-008	0.00000E+000	5.87000E-001	1.42247E-003	6	...........	-327.66
	259	52	5.96906E-001	7.19605E-008	0.00000E+000	5.97000E-001	1.41622E-003	6	...........	-327.66
CURVE2	TABLE
	Pt	T	Vf	Im	Vu	Sig	Ach	IERange	Over	Temp
	#	s	V vs. Ref.	A	V	V	V	#	bits	deg C
	260	52.2	5.89979E-001	4.69366E-009	0.00000E+000	5.90000E-001	1.41830E-003	6	...........	-327.66
	261	52.4	5.79993E-001	-1.37646E-008	0.00000E+000	5.80000E-001	1.42160E-003	6	...........	-327.66
	262	52.6	5.69995E-001	-1.87500E-008	0.00000E+000	5.70000E-001	1.40648E-003	6	...........	-327.66
	263	52.8	5.59980E-001	-2.21618E-008	0.00000E+000	5.60000E-001	1.40631E-003	6	...........	-327.66
	264	53	5.49995E-001	-2.45860E-008	0.00000E+000	5.50000E-001	1.41762E-003	6	...........	-327.66
	265	53.2	5.39998E-001	-2.65016E-008	0.00000E+000	5.40000E-001	1.41543E-003	6	...........	-327.66
	266	53.4	5.30013E-001	-2.79418E-008	0.00000E+000	5.30000E-001	1.41748E-003	6	...........	-327.66
	267	53.6	5.19975E-001	-2.90972E-008	0.00000E+000	5.20000E-001	1.41448E-003	6	...........	-327.66
	268	53.8	5.09979E-001	-3.01047E-008	0.00000E+000	5.10000E-001	1.42185E-003	6	...........	-327.66
	269	54	5.00016E-001	-3.09490E-008	0.00000E+000	5.00000E-001	1.41121E-003	6	...........	-327.66
	270	54.2	4.89982E-001	-3.15992E-008	0.00000E+000	4.90000E-001	1.41055E-003	6	...........	-327.66
	271	54.4	4.79951E-001	-3.22388E-008	0.00000E+000	4.80000E-001	1.40840E-003	6	...........	-327.66
	272	54.6	4.69981E-001	-3.27613E-008	0.00000E+000	4.70000E-001	1.40813E-003	6	...........	-327.66
	273	54.8	4.59999E-001	-3.32609E-008	0.00000E+000	4.60000E-001	1.41422E-003	6	...........	-327.66
	274	55	4.50012E-001	-3.36205E-008	0.00000E+000	4.50000E-001	1.41783E-003	6	...........	-327.66
	275	55.2	4.39955E-001	-3.40670E-008	0.00000E+000	4.40000E-001	1.41888E-003	6	...........	-327.66
	276	55.4	4.29996E-001	-3.43918E-008	0.00000E+000	4.30000E-001	1.42067E-003	6	...........	-327.66
	277	55.6	4.20044E-001	-3.47218E-008	0.00000E+000	4.20000E-001	1.41013E-003	6	...........	-327.66
	278	55.8	4.09984E-001	-3.49748E-008	0.00000E+000	4.10000E-001	1.40713E-003	6	...........	-327.66
	279	56	3.99991E-001	-3.53223E-008	0.00000E+000	4.00000E-001	1.41153E-003	6	...........	-327.66
	280	56.2	3.89992E-001	-3.55941E-008	0.00000E+000	3.90000E-001	1.41738E-003	6	...........	-327.66
	281	56.4	3.80002E-001	-3.58394E-008	0.00000E+000	3.80000E-001	1.41780E-003	6	...........	-327.66
	282	56.6	3.70029E-001	-3.60591E-008	0.00000E+000	3.70000E-001	1.42604E-003	6	...........	-327.66
	283	56.8	3.59982E-001	-3.63564E-008	0.00000E+000	3.60000E-001	1.42097E-003	6	...........	-327.66
	284	57	3.50019E-001	-3.65708E-008	0.00000E+000	3.50000E-001	1.42450E-003	6	...........	-327.66
	285	57.2	3.40014E-001	-3.67705E-008	0.00000E+000	3.40000E-001	1.42474E-003	6	...........	-327.66
	286	57.4	3.30021E-001	-3.69289E-008	0.00000E+000	3.30000E-001	1.41525E-003	6	...........	-327.66
	287	57.6	3.19996E-001	-3.72012E-008	0.00000E+000	3.20000E-001	1.41598E-003	6	...........	-327.66
	288	57.8	3.09994E-001	-3.73601E-008	0.00000E+000	3.10000E-001	1.41750E-003	6	...........	-327.66
	289	58	3.00003E-001	-3.76191E-008	0.00000E+000	3.00000E-001	1.42222E-003	6	...........	-327.66
	290	58.2	2.90009E-001	-3.77146E-008	0.00000E+000	2.90000E-001	1.42345E-003	6	...........	-327.66
	291	58.4	2.79983E-001	-3.79901E-008	0.00000E+000	2.80000E-001	1.42579E-003	6	...........	-327.66
	292	58.6	2.70087E-001	-3.81468E-008	0.00000E+000	2.70000E-001	1.42400E-003	6	...........	-327.66
	293	58.8	2.60007E-001	-3.83843E-008	0.00000E+000	2.60000E-001	1.42245E-003	6	...........	-327.66
	294	59	2.50056E-001	-3.84569E-008	0.00000E+000	2.50000E-001	1.42085E-003	6	...........	-327.66
	295	59.2	2.40002E-001	-3.86853E-008	0.00000E+000	2.40000E-001	1.40843E-003	6	...........	-327.66
	296	59.4	2.30000E-001	-3.88583E-008	0.00000E+000	2.30000E-001	1.42005E-003	6	...........	-327.66
	297	59.6	2.20009E-001	-3.90960E-008	0.00000E+000	2.20000E-001	1.41710E-003	6	...........	-327.66
	298	59.8	2.10007E-001	-3.92374E-008	0.00000E+000	2.10000E-001	1.41993E-003	6	...........	-327.66
	299	60	2.00005E-001	-3.94371E-008	0.00000E+000	2.00000E-001	1.41568E-003	6	...........	-327.66
	300	60.2	1.90057E-001	-3.96414E-008	0.00000E+000	1.90000E-001	1.41767E-003	6	...........	-327.66
	301	60.4	1.80020E-001	-3.98582E-008	0.00000E+000	1.80000E-001	1.42272E-003	6	...........	-327.66
	302	60.6	1.70111E-001	-4.00108E-008	0.00000E+000	1.70000E-001	1.42612E-003	6	...........	-327.66
	303	60.8	1.60013E-001	-4.02577E-008	0.00000E+000	1.60000E-001	1.40820E-003	6	...........	-327.66
	304	61	1.50029E-001	-4.03825E-008	0.00000E+000	1.50000E-001	1.41552E-003	6	...........	-327.66
	305	61.2	1.40101E-001	-4.06429E-008	0.00000E+000	1.40000E-001	1.41875E-003	6	...........	-327.66
	306	61.4	1.30053E-001	-4.07787E-008	0.00000E+000	1.30000E-001	1.41301E-003	6	...........	-327.66
	307	61.6	1.20007E-001	-4.10697E-008	0.00000E+000	1.20000E-001	1.42158E-003	6	...........	-327.66
	308	61.8	1.10022E-001	-4.11843E-008	0.00000E+000	1.10000E-001	1.42442E-003	6	...........	-327.66
	309	62	1.00011E-001	-4.14640E-008	0.00000E+000	1.00000E-001	1.42954E-003	6	...........	-327.66
	310	62.2	9.01263E-002	-4.16105E-008	0.00000E+000	9.00000E-002	1.42058E-003	6	...........	-327.66
	311	62.4	7.99919E-002	-4.18574E-008	0.00000E+000	8.00000E-002	1.41310E-003	6	...........	-327.66
	312	62.6	7.00226E-002	-4.20639E-008	0.00000E+000	7.00000E-002	1.42148E-003	6	...........	-327.66
	313	62.8	6.00513E-002	-4.22758E-008	0.00000E+000	6.00000E-002	1.41713E-003	6	...........	-327.66
	314	63	5.00392E-002	-4.24547E-008	0.00000E+000	5.00000E-002	1.41965E-003	6	...........	-327.66
	315	63.2	4.00151E-002	-4.26906E-008	0.00000E+000	4.00000E-002	1.41762E-003	6	...........	-327.66
	316	63.4	3.00101E-002	-4.29753E-008	0.00000E+000	3.00000E-002	1.42532E-003	6	...........	-327.66
	317	63.6	2.00097E-002	-4.31713E-008	0.00000E+000	2.00000E-002	1.42412E-003	6	...........	-327.66
	318	63.8	1.00532E-002	-4.33483E-008	0.00000E+000	9.99999E-003	1.41518E-003	6	...........	-327.66
	319	64	-1.95918E-006	-4.36200E-008	0.00000E+000	-1.49012E-008	1.41150E-003	6	...........	-327.66
	320	64.2	-9.94962E-003	-4.38241E-008	0.00000E+000	-1.00000E-002	1.40830E-003	6	...........	-327.66
	321	64.4	-1.99441E-002	-4.41206E-008	0.00000E+000	-2.00000E-002	1.41935E-003	6	...........	-327.66
	322	64.6	-2.99664E-002	-4.42733E-008	0.00000E+000	-3.00000E-002	1.41797E-003	6	...........	-327.66
	323	64.8	-3.99368E-002	-4.45674E-008	0.00000E+000	-4.00000E-002	1.42093E-003	6	...........	-327.66
	324	65	-4.99961E-002	-4.48068E-008	0.00000E+000	-5.00000E-002	1.41707E-003	6	...........	-327.66
	325	65.2	-5.99747E-002	-4.51208E-008	0.00000E+000	-6.00000E-002	1.42338E-003	6	...........	-327.66
	326	65.4	-6.99403E-002	-4.53040E-008	0.00000E+000	-7.00000E-002	1.41372E-003	6	...........	-327.66
	327	65.6	-8.00045E-002	-4.55825E-008	0.00000E+000	-8.00000E-002	1.41623E-003	6	...........	-327.66
	328	65.8	-8.99533E-002	-4.58132E-008	0.00000E+000	-9.00000E-002	1.41997E-003	6	...........	-327.66
	329	66	-9.99763E-002	-4.61001E-008	0.00000E+000	-1.00000E-001	1.42155E-003	6	...........	-327.66
	330	66.2	-1.09963E-001	-4.63221E-008	0.00000E+000	-1.10000E-001	1.41783E-003	6	...........	-327.66
	331	66.4	-1.19978E-001	-4.66082E-008	0.00000E+000	-1.20000E-001	1.42137E-003	6	...........	-327.66
	332	66.6	-1.30001E-001	-4.68949E-008	0.00000E+000	-1.30000E-001	1.42550E-003	6	...........	-327.66
	333	66.8	-1.39950E-001	-4.71768E-008	0.00000E+000	-1.40000E-001	1.42115E-003	6	...........	-327.66
	334	67	-1.49989E-001	-4.74566E-008	0.00000E+000	-1.50000E-001	1.41788E-003	6	...........	-327.66
	335	67.2	-1.60000E-001	-4.78040E-008	0.00000E+000	-1.60000E-001	1.41206E-003	6	...........	-327.66
	336	67.4	-1.69964E-001	-4.80921E-008	0.00000E+000	-1.70000E-001	1.41597E-003	6	...........	-327.66
	337	67.6	-1.79990E-001	-4.84297E-008	0.00000E+000	-1.80000E-001	1.41608E-003	6	...........	-327.66
	338	67.8	-1.89886E-001	-4.87078E-008	0.00000E+000	-1.90000E-001	1.42027E-003	6	...........	-327.66
	339	68	-2.00009E-001	-4.91447E-008	0.00000E+000	-2.00000E-001	1.42812E-003	6	...........	-327.66
	340	68.2	-2.09975E-001	-4.94547E-008	0.00000E+000	-2.10000E-001	1.42078E-003	6	...........	-327.66
	341	68.4	-2.19897E-001	-4.98139E-008	0.00000E+000	-2.20000E-001	1.42137E-003	6	...........	-327.66
	342	68.6	-2.29966E-001	-5.01316E-008	0.00000E+000	-2.30000E-001	1.41392E-003	6	...........	-327.66
	343	68.8	-2.39995E-001	-5.06299E-008	0.00000E+000	-2.40000E-001	1.41913E-003	6	...........	-327.66
	344	69	-2.49972E-001	-5.10358E-008	0.00000E+000	-2.50000E-001	1.42022E-003	6	...........	-327.66
	345	69.2	-2.59977E-001	-5.14634E-008	0.00000E+000	-2.60000E-001	1.41326E-003	6	...........	-327.66
	346	69.4	-2.69911E-001	-5.18363E-008	0.00000E+000	-2.70000E-001	1.41983E-003	6	...........	-327.66
	347	69.6	-2.80007E-001	-5.23845E-008	0.00000E+000	-2.80000E-001	1.41712E-003	6	...........	-327.66
	348	69.8	-2.89954E-001	-5.29145E-008	0.00000E+000	-2.90000E-001	1.42504E-003	6	...........	-327.66
	349	70	-2.99963E-001	-5.34747E-008	0.00000E+000	-3.00000E-001	1.42033E-003	6	...........	-327.66
	350	70.2	-3.09962E-001	-5.39555E-008	0.00000E+000	-3.10000E-001	1.41558E-003	6	...........	-327.66
	351	70.4	-3.19991E-001	-5.46080E-008	0.00000E+000	-3.20000E-001	1.41878E-003	6	...........	-327.66
	352	70.6	-3.29986E-001	-5.52370E-008	0.00000E+000	-3.30000E-001	1.41887E-003	6	...........	-327.66
	353	70.8	-3.39988E-001	-5.59682E-008	0.00000E+000	-3.40000E-001	1.42078E-003	6	...........	-327.66
	354	71	-3.49952E-001	-5.64817E-008	0.00000E+000	-3.50000E-001	1.41662E-003	6	...........	-327.66
	355	71.2	-3.59988E-001	-5.71962E-008	0.00000E+000	-3.60000E-001	1.42355E-003	6	...........	-327.66
	356	71.4	-3.69859E-001	-5.77600E-008	0.00000E+000	-3.70000E-001	1.41878E-003	6	...........	-327.66
	357	71.6	-3.79973E-001	-5.84699E-008	0.00000E+000	-3.80000E-001	1.42779E-003	6	...........	-327.66
	358	71.8	-3.89939E-001	-5.89982E-008	0.00000E+000	-3.90000E-001	1.41438E-003	6	...........	-327.66
	359	72	-3.99958E-001	-5.96241E-008	0.00000E+000	-4.00000E-001	1.40730E-003	6	...........	-327.66
	360	72.2	-4.09965E-001	-6.02354E-008	0.00000E+000	-4.10000E-001	1.41627E-003	6	...........	-327.66
	361	72.4	-4.19945E-001	-6.07733E-008	0.00000E+000	-4.20000E-001	1.41141E-003	6	...........	-327.66
	362	72.6	-4.29926E-001	-6.13144E-008	0.00000E+000	-4.30000E-001	1.42384E-003	6	...........	-327.66
	363	72.8	-4.39979E-001	-6.19160E-008	0.00000E+000	-4.40000E-001	1.41872E-003	6	...........	-327.66
	364	73	-4.49890E-001	-6.24929E-008	0.00000E+000	-4.50000E-001	1.42145E-003	6	...........	-327.66
	365	73.2	-4.59946E-001	-6.31048E-008	0.00000E+000	-4.60000E-001	1.42384E-003	6	...........	-327.66
	366	73.4	-4.69811E-001	-6.36648E-008	0.00000E+000	-4.70000E-001	1.42399E-003	6	...........	-327.66
	367	73.6	-4.79919E-001	-6.42579E-008	0.00000E+000	-4.80000E-001	1.41697E-003	6	...........	-327.66
	368	73.8	-4.89928E-001	-6.47827E-008	0.00000E+000	-4.90000E-001	1.41940E-003	6	...........	-327.66
	369	74	-4.99851E-001	-6.53998E-008	0.00000E+000	-5.00000E-001	1.43279E-003	6	...........	-327.66
	370	74.2	-5.09883E-001	-6.59025E-008	0.00000E+000	-5.10000E-001	1.41773E-003	6	...........	-327.66
	371	74.4	-5.19974E-001	-6.65604E-008	0.00000E+000	-5.20000E-001	1.42712E-003	6	...........	-327.66
	372	74.6	-5.29904E-001	-6.70585E-008	0.00000E+000	-5.30000E-001	1.42459E-003	6	...........	-327.66
	373	74.8	-5.39939E-001	-6.76687E-008	0.00000E+000	-5.40000E-001	1.43567E-003	6	...........	-327.66
	374	75	-5.49811E-001	-6.81914E-008	0.00000E+000	-5.50000E-001	1.41782E-003	6	...........	-327.66
	375	75.2	-5.59955E-001	-6.87129E-008	0.00000E+000	-5.60000E-001	1.41883E-003	6	...........	-327.66
	376	75.4	-5.69842E-001	-6.92654E-008	0.00000E+000	-5.70000E-001	1.41978E-003	6	...........	-327.66
	377	75.6	-5.79840E-001	-6.97375E-008	0.00000E+000	-5.80000E-001	1.42455E-003	6	...........	-327.66
	378	75.8	-5.89893E-001	-7.01355E-008	0.00000E+000	-5.90000E-001	1.43027E-003	6	...........	-327.66
	379	76	-5.99903E-001	-7.06194E-008	0.00000E+000	-6.00000E-001	1.42592E-003	6	...........	-327.66
	380	76.2	-6.09907E-001	-7.10711E-008	0.00000E+000	-6.10000E-001	1.43057E-003	6	...........	-327.66
	381	76.4	-6.19944E-001	-7.14568E-008	0.00000E+000	-6.20000E-001	1.42770E-003	6	...........	-327.66
	382	76.6	-6.29822E-001	-7.17136E-008	0.00000E+000	-6.30000E-001	1.41927E-003	6	...........	-327.66
	383	76.8	-6.39941E-001	-7.20844E-008	0.00000E+000	-6.40000E-001	1.42313E-003	6	...........	-327.66
	384	77	-6.49774E-001	-7.23193E-008	0.00000E+000	-6.50000E-001	1.42472E-003	6	...........	-327.66
	385	77.2	-6.59853E-001	-7.26062E-008	0.00000E+000	-6.60000E-001	1.42745E-003	6	...........	-327.66
	386	77.4	-6.69769E-001	-7.25623E-008	0.00000E+000	-6.70000E-001	1.43431E-003	6	...........	-327.66
	387	77.6	-6.79827E-001	-7.26137E-008	0.00000E+000	-6.80000E-001	1.43681E-003	6	...........	-327.66
	388	77.8	-6.89879E-001	-7.23094E-008	0.00000E+000	-6.90000E-001	1.43147E-003	6	...........	-327.66
	389	78	-6.99935E-001	-7.18599E-008	0.00000E+000	-7.00000E-001	1.42794E-003	6	...........	-327.66
	390	78.2	-7.09817E-001	-7.08759E-008	0.00000E+000	-7.10000E-001	1.42132E-003	6	...........	-327.66
	391	78.4	-7.19959E-001	-6.96785E-008	0.00000E+000	-7.20000E-001	1.41842E-003	6	...........	-327.66
	392	78.6	-7.29843E-001	-6.80923E-008	0.00000E+000	-7.30000E-001	1.42545E-003	6	...........	-327.66
	393	78.8	-7.39933E-001	-6.62858E-008	0.00000E+000	-7.40000E-001	1.42295E-003	6	...........	-327.66
	394	79	-7.49831E-001	-6.39995E-008	0.00000E+000	-7.50000E-001	1.43212E-003	6	...........	-327.66
	395	79.2	-7.59884E-001	-6.14704E-008	0.00000E+000	-7.60000E-001	1.42292E-003	6	...........	-327.66
	396	79.4	-7.69877E-001	-5.88011E-008	0.00000E+000	-7.70000E-001	1.42924E-003	6	...........	-327.66
	397	79.6	-7.79856E-001	-5.59370E-008	0.00000E+000	-7.80000E-001	1.43225E-003	6	...........	-327.66
	398	79.8	-7.89864E-001	-5.29189E-008	0.00000E+000	-7.90000E-001	1.41908E-003	6	...........	-327.66
	399	80	-7.99956E-001	-4.99973E-008	0.00000E+000	-8.00000E-001	1.41882E-003	6	...........	-327.66
	400	80.2	-8.09836E-001	-4.68383E-008	0.00000E+000	-8.10000E-001	1.41682E-003	6	...........	-327.66
	401	80.4	-8.19907E-001	-4.38974E-008	0.00000E+000	-8.20000E-001	1.42662E-003	6	...........	-327.66
	402	80.6	-8.29755E-001	-4.10946E-008	0.00000E+000	-8.30000E-001	1.43102E-003	6	...........	-327.66
	403	80.8	-8.39922E-001	-3.85592E-008	0.00000E+000	-8.40000E-001	1.42809E-003	6	...........	-327.66
	404	81	-8.49858E-001	-3.59864E-008	0.00000E+000	-8.50000E-001	1.42860E-003	6	...........	-327.66
	405	81.2	-8.59816E-001	-3.38672E-008	0.00000E+000	-8.60000E-001	1.42714E-003	6	...........	-327.66
	406	81.4	-8.69876E-001	-3.18243E-008	0.00000E+000	-8.70000E-001	1.41798E-003	6	...........	-327.66
	407	81.6	-8.79932E-001	-3.01045E-008	0.00000E+000	-8.80000E-001	1.42108E-003	6	...........	-327.66
	408	81.8	-8.89876E-001	-2.84827E-008	0.00000E+000	-8.90000E-001	1.42308E-003	6	...........	-327.66
	409	82	-8.99941E-001	-2.70915E-008	0.00000E+000	-9.00000E-001	1.42312E-003	6	...........	-327.66
	410	82.2	-8.89936E-001	-2.26615E-008	0.00000E+000	-8.90000E-001	1.42158E-003	6	...........	-327.66
	411	82.4	-8.79966E-001	-2.03913E-008	0.00000E+000	-8.80000E-001	1.42198E-003	6	...........	-327.66
	412	82.6	-8.69963E-001	-1.84470E-008	0.00000E+000	-8.70000E-001	1.41728E-003	6	...........	-327.66
	413	82.8	-8.59879E-001	-1.67494E-008	0.00000E+000	-8.60000E-001	1.42949E-003	6	...........	-327.66
	414	83	-8.49916E-001	-1.51521E-008	0.00000E+000	-8.50000E-001	1.42303E-003	6	...........	-327.66
	415	83.2	-8.40007E-001	-1.36156E-008	0.00000E+000	-8.40000E-001	1.42178E-003	6	...........	-327.66
	416	83.4	-8.29738E-001	-1.19335E-008	0.00000E+000	-8.30000E-001	1.43145E-003	6	...........	-327.66
	417	83.6	-8.19982E-001	-1.02076E-008	0.00000E+000	-8.20000E-001	1.42380E-003	6	...........	-327.66
	418	83.8	-8.09876E-001	-8.21752E-009	0.00000E+000	-8.10000E-001	1.42352E-003	6	...........	-327.66
	419	84	-7.99967E-001	-6.05372E-009	0.00000E+000	-8.00000E-001	1.41700E-003	6	...........	-327.66
	420	84.2	-7.89918E-001	-3.46747E-009	0.00000E+000	-7.90000E-001	1.42337E-003	6	...........	-327.66
	421	84.4	-7.79957E-001	-6.72963E-010	0.00000E+000	-7.80000E-001	1.42118E-003	6	...........	-327.66
	422	84.6	-7.69969E-001	2.64241E-009	0.00000E+000	-7.70000E-001	1.43349E-003	6	...........	-327.66
	423	84.8	-7.59952E-001	6.26088E-009	0.00000E+000	-7.60000E-001	1.43376E-003	6	...........	-327.66
	424	85	-7.49895E-001	1.01725E-008	0.00000E+000	-7.50000E-001	1.43472E-003	6	...........	-327.66
	425	85.2	-7.39978E-001	1.42534E-008	0.00000E+000	-7.40000E-001	1.42280E-003	6	...........	-327.66
	426	85.4	-7.29901E-001	1.85832E-008	0.00000E+000	-7.30000E-001	1.42765E-003	6	...........	-327.66
	427	85.6	-7.19978E-001	2.24602E-008	0.00000E+000	-7.20000E-001	1.42155E-003	6	...........	-327.66
	428	85.8	-7.09898E-001	2.57335E-008	0.00000E+000	-7.10000E-001	1.42347E-003	6	...........	-327.66
	429	86	-6.99946E-001	2.79486E-008	0.00000E+000	-7.00000E-001	1.43254E-003	6	...........	-327.66
	430	86.2	-6.89958E-001	2.92792E-008	0.00000E+000	-6.90000E-001	1.42752E-003	6	...........	-327.66
	431	86.4	-6.79911E-001	2.97383E-008	0.00000E+000	-6.80000E-001	1.42422E-003	6	...........	-327.66
	432	86.6	-6.69863E-001	2.97999E-008	0.00000E+000	-6.70000E-001	1.42213E-003	6	...........	-327.66
	433	86.8	-6.59960E-001	2.95467E-008	0.00000E+000	-6.60000E-001	1.42237E-003	6	...........	-327.66
	434	87	-6.49913E-001	2.95065E-008	0.00000E+000	-6.50000E-001	1.42469E-003	6	...........	-327.66
	435	87.2	-6.39990E-001	2.95273E-008	0.00000E+000	-6.40000E-001	1.41660E-003	6	...........	-327.66
	436	87.4	-6.29906E-001	2.96594E-008	0.00000E+000	-6.30000E-001	1.41980E-003	6	...........	-327.66
	437	87.6	-6.19979E-001	2.96851E-008	0.00000E+000	-6.20000E-001	1.42795E-003	6	...........	-327.66
	438	87.8	-6.09996E-001	2.98597E-008	0.00000E+000	-6.10000E-001	1.43122E-003	6	...........	-327.66
	439	88	-5.99991E-001	3.01533E-008	0.00000E+000	-6.00000E-001	1.43614E-003	6	...........	-327.66
	440	88.2	-5.89961E-001	3.04394E-008	0.00000E+000	-5.90000E-001	1.43601E-003	6	...........	-327.66
	441	88.4	-5.79924E-001	3.06894E-008	0.00000E+000	-5.80000E-001	1.42645E-003	6	...........	-327.66
	442	88.6	-5.69985E-001	3.09917E-008	0.00000E+000	-5.70000E-001	1.42734E-003	6	...........	-327.66
	443	88.8	-5.60015E-001	3.13681E-008	0.00000E+000	-5.60000E-001	1.42053E-003	6	...........	-327.66
	444	89	-5.49881E-001	3.17818E-008	0.00000E+000	-5.50000E-001	1.42427E-003	6	...........	-327.66
	445	89.2	-5.40001E-001	3.21228E-008	0.00000E+000	-5.40000E-001	1.42674E-003	6	...........	-327.66
	446	89.4	-5.29989E-001	3.26033E-008	0.00000E+000	-5.30000E-001	1.43055E-003	6	...........	-327.66
	447	89.6	-5.20025E-001	3.30291E-008	0.00000E+000	-5.20000E-001	1.42904E-003	6	...........	-327.66
	448	89.8	-5.09963E-001	3.35883E-008	0.00000E+000	-5.10000E-001	1.42247E-003	6	...........	-327.66
	449	90	-4.99914E-001	3.40939E-008	0.00000E+000	-5.00000E-001	1.42652E-003	6	...........	-327.66
	450	90.2	-4.89991E-001	3.46459E-008	0.00000E+000	-4.90000E-001	1.42198E-003	6	...........	-327.66
	451	90.4	-4.79997E-001	3.50880E-008	0.00000E+000	-4.80000E-001	1.41718E-003	6	...........	-327.66
	452	90.6	-4.69912E-001	3.56990E-008	0.00000E+000	-4.70000E-001	1.42090E-003	6	...........	-327.66
	453	90.8	-4.59993E-001	3.62770E-008	0.00000E+000	-4.60000E-001	1.42949E-003	6	...........	-327.66
	454	91	-4.49926E-001	3.70216E-008	0.00000E+000	-4.50000E-001	1.43477E-003	6	...........	-327.66
	455	91.2	-4.40011E-001	3.75573E-008	0.00000E+000	-4.40000E-001	1.43147E-003	6	...........	-327.66
	456	91.4	-4.29986E-001	3.81764E-008	0.00000E+000	-4.30000E-001	1.42845E-003	6	...........	-327.66
	457	91.6	-4.19983E-001	3.88067E-008	0.00000E+000	-4.20000E-001	1.41937E-003	6	...........	-327.66
	458	91.8	-4.10000E-001	3.94491E-008	0.00000E+000	-4.10000E-001	1.42775E-003	6	...........	-327.66
	459	92	-4.00005E-001	4.01558E-008	0.00000E+000	-4.00000E-001	1.41740E-003	6	...........	-327.66
	460	92.2	-3.89972E-001	4.08376E-008	0.00000E+000	-3.90000E-001	1.42609E-003	6	...........	-327.66
	461	92.4	-3.80009E-001	4.14003E-008	0.00000E+000	-3.80000E-001	1.43245E-003	6	...........	-327.66
	462	92.6	-3.69947E-001	4.21373E-008	0.00000E+000	-3.70000E-001	1.42420E-003	6	...........	-327.66
	463	92.8	-3.60015E-001	4.26740E-008	0.00000E+000	-3.60000E-001	1.42522E-003	6	...........	-327.66
	464	93	-3.50001E-001	4.33680E-008	0.00000E+000	-3.50000E-001	1.42495E-003	6	...........	-327.66
	465	93.2	-3.40014E-001	4.38446E-008	0.00000E+000	-3.40000E-001	1.42155E-003	6	...........	-327.66
	466	93.4	-3.30018E-001	4.44531E-008	0.00000E+000	-3.30000E-001	1.41950E-003	6	...........	-327.66
	467	93.6	-3.20021E-001	4.49820E-008	0.00000E+000	-3.20000E-001	1.41657E-003	6	...........	-327.66
	468	93.8	-3.09998E-001	4.56033E-008	0.00000E+000	-3.10000E-001	1.41948E-003	6	...........	-327.66
	469	94	-3.00003E-001	4.59949E-008	0.00000E+000	-3.00000E-001	1.42272E-003	6	...........	-327.66
	470	94.2	-2.89981E-001	4.64969E-008	0.00000E+000	-2.90000E-001	1.42490E-003	6	...........	-327.66
	471	94.4	-2.80034E-001	4.69425E-008	0.00000E+000	-2.80000E-001	1.42325E-003	6	...........	-327.66
	472	94.6	-2.69960E-001	4.74734E-008	0.00000E+000	-2.70000E-001	1.42747E-003	6	...........	-327.66
	473	94.8	-2.60007E-001	4.78345E-008	0.00000E+000	-2.60000E-001	1.41385E-003	6	...........	-327.66
	474	95	-2.50017E-001	4.82277E-008	0.00000E+000	-2.50000E-001	1.42235E-003	6	...........	-327.66
	475	95.2	-2.40033E-001	4.86053E-008	0.00000E+000	-2.40000E-001	1.41677E-003	6	...........	-327.66
	476	95.4	-2.30003E-001	4.90127E-008	0.00000E+000	-2.30000E-001	1.41328E-003	6	...........	-327.66
	477	95.6	-2.19937E-001	4.93258E-008	0.00000E+000	-2.20000E-001	1.42887E-003	6	...........	-327.66
	478	95.8	-2.10008E-001	4.96511E-008	0.00000E+000	-2.10000E-001	1.42300E-003	6	...........	-327.66
	479	96	-2.00048E-001	4.98175E-008	0.00000E+000	-2.00000E-001	1.42058E-003	6	...........	-327.66
	480	96.2	-1.89942E-001	5.01696E-008	0.00000E+000	-1.90000E-001	1.42113E-003	6	...........	-327.66
	481	96.4	-1.80017E-001	5.04232E-008	0.00000E+000	-1.80000E-001	1.41595E-003	6	...........	-327.66
	482	96.6	-1.70012E-001	5.08066E-008	0.00000E+000	-1.70000E-001	1.41675E-003	6	...........	-327.66
	483	96.8	-1.60026E-001	5.08435E-008	0.00000E+000	-1.60000E-001	1.41223E-003	6	...........	-327.66
	484	97	-1.50031E-001	5.11716E-008	0.00000E+000	-1.50000E-001	1.41522E-003	6	...........	-327.66
	485	97.2	-1.39997E-001	5.14434E-008	0.00000E+000	-1.40000E-001	1.41917E-003	6	...........	-327.66
	486	97.4	-1.30024E-001	5.17643E-008	0.00000E+000	-1.30000E-001	1.42697E-003	6	...........	-327.66
	487	97.6	-1.20009E-001	5.19813E-008	0.00000E+000	-1.20000E-001	1.42355E-003	6	...........	-327.66
	488	97.8	-1.10009E-001	5.20338E-008	0.00000E+000	-1.10000E-001	1.41828E-003	6	...........	-327.66
	489	98	-1.00016E-001	5.21671E-008	0.00000E+000	-1.00000E-001	1.41448E-003	6	...........	-327.66
	490	98.2	-8.99926E-002	5.25861E-008	0.00000E+000	-9.00000E-002	1.41952E-003	6	...........	-327.66
	491	98.4	-8.00241E-002	5.27312E-008	0.00000E+000	-8.00000E-002	1.41880E-003	6	...........	-327.66
	492	98.6	-6.99918E-002	5.28102E-008	0.00000E+000	-7.00000E-002	1.41532E-003	6	...........	-327.66
	493	98.8	-6.00147E-002	5.28854E-008	0.00000E+000	-6.00000E-002	1.42955E-003	6	...........	-327.66
	494	99	-5.00337E-002	5.31371E-008	0.00000E+000	-5.00000E-002	1.42367E-003	6	...........	-327.66
	495	99.2	-3.99766E-002	5.32990E-008	0.00000E+000	-4.00000E-002	1.42565E-003	6	...........	-327.66
	496	99.4	-2.99957E-002	5.35243E-008	0.00000E+000	-3.00000E-002	1.42595E-003	6	...........	-327.66
	497	99.6	-1.99963E-002	5.34999E-008	0.00000E+000	-2.00000E-002	1.42318E-003	6	...........	-327.66
	498	99.8	-1.00113E-002	5.37326E-008	0.00000E+000	-1.00000E-002	1.41657E-003	6	...........	-327.66
	499	100	-3.02103E-005	5.38097E-008	0.00000E+000	-1.49012E-008	1.41687E-003	6	...........	-327.66
	500	100.2	1.00018E-002	5.40000E-008	0.00000E+000	9.99999E-003	1.41775E-003	6	...........	-327.66
	501	100.4	1.99966E-002	5.40269E-008	0.00000E+000	2.00000E-002	1.42410E-003	6	...........	-327.66
	502	100.6	2.99907E-002	5.41802E-008	0.00000E+000	3.00000E-002	1.43329E-003	6	...........	-327.66
	503	100.8	3.98020E-002	5.43549E-008	0.00000E+000	4.00000E-002	1.43701E-003	6	...........	-327.66
	504	101	5.00039E-002	5.46026E-008	0.00000E+000	5.00000E-002	1.42922E-003	6	...........	-327.66
	505	101.2	5.99983E-002	5.46813E-008	0.00000E+000	6.00000E-002	1.42950E-003	6	...........	-327.66
	506	101.4	6.99989E-002	5.48003E-008	0.00000E+000	7.00000E-002	1.43030E-003	6	...........	-327.66
	507	101.6	7.99692E-002	5.50563E-008	0.00000E+000	8.00000E-002	1.42368E-003	6	...........	-327.66
	508	101.8	9.00670E-002	5.52923E-008	0.00000E+000	9.00000E-002	1.42797E-003	6	...........	-327.66
	509	102	9.99902E-002	5.53813E-008	0.00000E+000	1.00000E-001	1.43884E-003	6	...........	-327.66
	510	102.2	1.09993E-001	5.56286E-008	0.00000E+000	1.10000E-001	1.43174E-003	6	...........	-327.66
	511	102.4	1.19997E-001	5.58300E-008	0.00000E+000	1.20000E-001	1.42792E-003	6	...........	-327.66
	512	102.6	1.30014E-001	5.61276E-008	0.00000E+000	1.30000E-001	1.43832E-003	6	...........	-327.66
	513	102.8	1.40040E-001	5.62744E-008	0.00000E+000	1.40000E-001	1.43381E-003	6	...........	-327.66
	514	103	1.50011E-001	5.65276E-008	0.00000E+000	1.50000E-001	1.43332E-003	6	...........	-327.66
	515	103.2	1.59977E-001	5.67096E-008	0.00000E+000	1.60000E-001	1.42110E-003	6	...........	-327.66
	516	103.4	1.70050E-001	5.69699E-008	0.00000E+000	1.70000E-001	1.43202E-003	6	...........	-327.66
	517	103.6	1.79988E-001	5.70782E-008	0.00000E+000	1.80000E-001	1.43426E-003	6	...........	-327.66
	518	103.8	1.89997E-001	5.72854E-008	0.00000E+000	1.90000E-001	1.42867E-003	6	...........	-327.66
	519	104	1.99977E-001	5.74486E-008	0.00000E+000	2.00000E-001	1.42914E-003	6	...........	-327.66
	520	104.2	2.09976E-001	5.76291E-008	0.00000E+000	2.10000E-001	1.42517E-003	6	...........	-327.66
	521	104.4	2.19942E-001	5.77187E-008	0.00000E+000	2.20000E-001	1.42469E-003	6	...........	-327.66
	522	104.6	2.29990E-001	5.78606E-008	0.00000E+000	2.30000E-001	1.42954E-003	6	...........	-327.66
	523	104.8	2.39955E-001	5.80467E-008	0.00000E+000	2.40000E-001	1.42574E-003	6	...........	-327.66
	524	105	2.50005E-001	5.82186E-008	0.00000E+000	2.50000E-001	1.42804E-003	6	...........	-327.66
	525	105.2	2.59972E-001	5.82750E-008	0.00000E+000	2.60000E-001	1.43819E-003	6	...........	-327.66
	526	105.4	2.70003E-001	5.85451E-008	0.00000E+000	2.70000E-001	1.43190E-003	6	...........	-327.66
	527	105.6	2.79953E-001	5.86892E-008	0.00000E+000	2.80000E-001	1.42927E-003	6	...........	-327.66
	528	105.8	2.89968E-001	5.89366E-008	0.00000E+000	2.90000E-001	1.43736E-003	6	...........	-327.66
	529	106	2.99977E-001	5.90035E-008	0.00000E+000	3.00000E-001	1.42964E-003	6	...........	-327.66
	530	106.2	3.09979E-001	5.92354E-008	0.00000E+000	3.10000E-001	1.43225E-003	6	...........	-327.66
	531	106.4	3.19967E-001	5.94524E-008	0.00000E+000	3.20000E-001	1.42175E-003	6	...........	-327.66
	532	106.6	3.29989E-001	5.97216E-008	0.00000E+000	3.30000E-001	1.42607E-003	6	...........	-327.66
	533	106.8	3.39980E-001	5.98908E-008	0.00000E+000	3.40000E-001	1.43060E-003	6	...........	-327.66
	534	107	3.50002E-001	6.01752E-008	0.00000E+000	3.50000E-001	1.43074E-003	6	...........	-327.66
	535	107.2	3.59939E-001	6.04488E-008	0.00000E+000	3.60000E-001	1.43454E-003	6	...........	-327.66
	536	107.4	3.69977E-001	6.08031E-008	0.00000E+000	3.70000E-001	1.42669E-003	6	...........	-327.66
	537	107.6	3.79982E-001	6.10869E-008	0.00000E+000	3.80000E-001	1.42617E-003	6	...........	-327.66
	538	107.8	3.89968E-001	6.13980E-008	0.00000E+000	3.90000E-001	1.42995E-003	6	...........	-327.66
	539	108	3.99965E-001	6.17888E-008	0.00000E+000	4.00000E-001	1.42472E-003	6	...........	-327.66
	540	108.2	4.09965E-001	6.21628E-008	0.00000E+000	4.10000E-001	1.42097E-003	6	...........	-327.66
	541	108.4	4.19990E-001	6.25193E-008	0.00000E+000	4.20000E-001	1.43177E-003	6	...........	-327.66
	542	108.6	4.29978E-001	6.29524E-008	0.00000E+000	4.30000E-001	1.43476E-003	6	...........	-327.66
	543	108.8	4.39937E-001	6.33697E-008	0.00000E+000	4.40000E-001	1.42774E-003	6	...........	-327.66
	544	109	4.49996E-001	6.38415E-008	0.00000E+000	4.50000E-001	1.43856E-003	6	...........	-327.66
	545	109.2	4.59975E-001	6.42533E-008	0.00000E+000	4.60000E-001	1.42739E-003	6	...........	-327.66
	546	109.4	4.69944E-001	6.47511E-008	0.00000E+000	4.70000E-001	1.42837E-003	6	...........	-327.66
	547	109.6	4.79941E-001	6.52356E-008	0.00000E+000	4.80000E-001	1.42602E-003	6	...........	-327.66
	548	109.8	4.89952E-001	6.58143E-008	0.00000E+000	4.90000E-001	1.42222E-003	6	...........	-327.66
	549	110	4.99990E-001	6.63226E-008	0.00000E+000	5.00000E-001	1.43409E-003	6	...........	-327.66
	550	110.2	5.09960E-001	6.68687E-008	0.00000E+000	5.10000E-001	1.43969E-003	6	...........	-327.66
	551	110.4	5.19945E-001	6.75110E-008	0.00000E+000	5.20000E-001	1.43122E-003	6	...........	-327.66
	552	110.6	5.29987E-001	6.81700E-008	0.00000E+000	5.30000E-001	1.43304E-003	6	...........	-327.66
	553	110.8	5.39976E-001	6.88363E-008	0.00000E+000	5.40000E-001	1.43549E-003	6	...........	-327.66
	554	111	5.49968E-001	6.96192E-008	0.00000E+000	5.50000E-001	1.43722E-003	6	...........	-327.66
	555	111.2	5.59956E-001	7.04388E-008	0.00000E+000	5.60000E-001	1.42574E-003	6	...........	-327.66
	556	111.4	5.69958E-001	7.13574E-008	0.00000E+000	5.70000E-001	1.42447E-003	6	...........	-327.66
	557	111.6	5.79973E-001	7.22772E-008	0.00000E+000	5.80000E-001	1.43592E-003	6	...........	-327.66
	558	111.8	5.89951E-001	7.34340E-008	0.00000E+000	5.90000E-001	1.43857E-003	6	...........	-327.66
	559	112	5.99957E-001	7.46276E-008	0.00000E+000	6.00000E-001	1.43627E-003	6	...........	-327.66
CURVE3	TABLE
	Pt	T	Vf	Im	Vu	Sig	Ach	IERange	Over	Temp
	#	s	V vs. Ref.	A	V	V	V	#	bits	deg C
	560	112.2	5.89979E-001	-6.06653E-009	0.00000E+000	5.90000E-001	1.43822E-003	6	...........	-327.66
	561	112.4	5.79993E-001	-1.40308E-008	0.00000E+000	5.80000E-001	1.43797E-003	6	...........	-327.66
	562	112.6	5.69984E-001	-1.87543E-008	0.00000E+000	5.70000E-001	1.42882E-003	6	...........	-327.66
	563	112.8	5.59965E-001	-2.20969E-008	0.00000E+000	5.60000E-001	1.42710E-003	6	...........	-327.66
	564	113	5.49992E-001	-2.45240E-008	0.00000E+000	5.50000E-001	1.42967E-003	6	...........	-327.66
	565	113.2	5.39998E-001	-2.64405E-008	0.00000E+000	5.40000E-001	1.42840E-003	6	...........	-327.66
	566	113.4	5.30010E-001	-2.78799E-008	0.00000E+000	5.30000E-001	1.43832E-003	6	...........	-327.66
	567	113.6	5.19979E-001	-2.90490E-008	0.00000E+000	5.20000E-001	1.43794E-003	6	...........	-327.66
	568	113.8	5.09971E-001	-3.00605E-008	0.00000E+000	5.10000E-001	1.43270E-003	6	...........	-327.66
	569	114	5.00013E-001	-3.08640E-008	0.00000E+000	5.00000E-001	1.42585E-003	6	...........	-327.66
	570	114.2	4.89975E-001	-3.15952E-008	0.00000E+000	4.90000E-001	1.42317E-003	6	...........	-327.66
	571	114.4	4.79956E-001	-3.22818E-008	0.00000E+000	4.80000E-001	1.42939E-003	6	...........	-327.66
	572	114.6	4.69976E-001	-3.28194E-008	0.00000E+000	4.70000E-001	1.42905E-003	6	...........	-327.66
	573	114.8	4.59999E-001	-3.33446E-008	0.00000E+000	4.60000E-001	1.42278E-003	6	...........	-327.66
	574	115	4.50005E-001	-3.37274E-008	0.00000E+000	4.50000E-001	1.43377E-003	6	...........	-327.66
	575	115.2	4.39940E-001	-3.41505E-008	0.00000E+000	4.40000E-001	1.43149E-003	6	...........	-327.66
	576	115.4	4.29993E-001	-3.44806E-008	0.00000E+000	4.30000E-001	1.43099E-003	6	...........	-327.66
	577	115.6	4.20045E-001	-3.48219E-008	0.00000E+000	4.20000E-001	1.42895E-003	6	...........	-327.66
	578	115.8	4.09987E-001	-3.51057E-008	0.00000E+000	4.10000E-001	1.42517E-003	6	...........	-327.66
	579	116	3.99987E-001	-3.54415E-008	0.00000E+000	4.00000E-001	1.43356E-003	6	...........	-327.66
	580	116.2	3.89994E-001	-3.57661E-008	0.00000E+000	3.90000E-001	1.43292E-003	6	...........	-327.66
	581	116.4	3.80002E-001	-3.59866E-008	0.00000E+000	3.80000E-001	1.42430E-003	6	...........	-327.66
	582	116.6	3.70032E-001	-3.62201E-008	0.00000E+000	3.70000E-001	1.43319E-003	6	...........	-327.66
	583	116.8	3.59983E-001	-3.65204E-008	0.00000E+000	3.60000E-001	1.42939E-003	6	...........	-327.66
	584	117	3.50026E-001	-3.67344E-008	0.00000E+000	3.50000E-001	1.43372E-003	6	...........	-327.66
	585	117.2	3.40015E-001	-3.69799E-008	0.00000E+000	3.40000E-001	1.43597E-003	6	...........	-327.66
	586	117.4	3.30020E-001	-3.71481E-008	0.00000E+000	3.30000E-001	1.43252E-003	6	...........	-327.66
	587	117.6	3.19994E-001	-3.74185E-008	0.00000E+000	3.20000E-001	1.42949E-003	6	...........	-327.66
	588	117.8	3.09996E-001	-3.76509E-008	0.00000E+000	3.10000E-001	1.43242E-003	6	...........	-327.66
	589	118	3.00003E-001	-3.79051E-008	0.00000E+000	3.00000E-001	1.42490E-003	6	...........	-327.66
	590	118.2	2.90011E-001	-3.79965E-008	0.00000E+000	2.90000E-001	1.42460E-003	6	...........	-327.66
	591	118.4	2.79985E-001	-3.82261E-008	0.00000E+000	2.80000E-001	1.43220E-003	6	...........	-327.66
	592	118.6	2.70100E-001	-3.83720E-008	0.00000E+000	2.70000E-001	1.43014E-003	6	...........	-327.66
	593	118.8	2.60007E-001	-3.86459E-008	0.00000E+000	2.60000E-001	1.43200E-003	6	...........	-327.66
	594	119	2.50055E-001	-3.87017E-008	0.00000E+000	2.50000E-001	1.41998E-003	6	...........	-327.66
	595	119.2	2.40004E-001	-3.89797E-008	0.00000E+000	2.40000E-001	1.41930E-003	6	...........	-327.66
	596	119.4	2.29999E-001	-3.91534E-008	0.00000E+000	2.30000E-001	1.43352E-003	6	...........	-327.66
	597	119.6	2.20008E-001	-3.93850E-008	0.00000E+000	2.20000E-001	1.42972E-003	6	...........	-327.66
	598	119.8	2.10004E-001	-3.94969E-008	0.00000E+000	2.10000E-001	1.43102E-003	6	...........	-327.66
	599	120	2.00006E-001	-3.96900E-008	0.00000E+000	2.00000E-001	1.42789E-003	6	...........	-327.66
	600	120.2	1.90054E-001	-3.98948E-008	0.00000E+000	1.90000E-001	1.43832E-003	6	...........	-327.66
	601	120.4	1.80021E-001	-4.01052E-008	0.00000E+000	1.80000E-001	1.43426E-003	6	...........	-327.66
	602	120.6	1.70118E-001	-4.02957E-008	0.00000E+000	1.70000E-001	1.43457E-003	6	...........	-327.66
	603	120.8	1.60012E-001	-4.04841E-008	0.00000E+000	1.60000E-001	1.42774E-003	6	...........	-327.66
	604	121	1.50030E-001	-4.06221E-008	0.00000E+000	1.50000E-001	1.42944E-003	6	...........	-327.66
	605	121.2	1.40099E-001	-4.08152E-008	0.00000E+000	1.40000E-001	1.43484E-003	6	...........	-327.66
	606	121.4	1.30057E-001	-4.09520E-008	0.00000E+000	1.30000E-001	1.42885E-003	6	...........	-327.66
	607	121.6	1.20011E-001	-4.12576E-008	0.00000E+000	1.20000E-001	1.43112E-003	6	...........	-327.66
	608	121.8	1.10025E-001	-4.13836E-008	0.00000E+000	1.10000E-001	1.42687E-003	6	...........	-327.66
	609	122	1.00012E-001	-4.16306E-008	0.00000E+000	1.00000E-001	1.43187E-003	6	...........	-327.66
	610	122.2	9.01317E-002	-4.17453E-008	0.00000E+000	9.00000E-002	1.42880E-003	6	...........	-327.66
	611	122.4	7.99960E-002	-4.19569E-008	0.00000E+000	8.00000E-002	1.41943E-003	6	...........	-327.66
	612	122.6	7.00274E-002	-4.21772E-008	0.00000E+000	7.00000E-002	1.43579E-003	6	...........	-327.66
	613	122.8	6.00497E-002	-4.23483E-008	0.00000E+000	6.00000E-002	1.43337E-003	6	...........	-327.66
	614	123	5.00401E-002	-4.25165E-008	0.00000E+000	5.00000E-002	1.43442E-003	6	...........	-327.66
	615	123.2	4.00139E-002	-4.27473E-008	0.00000E+000	4.00000E-002	1.43404E-003	6	...........	-327.66
	616	123.4	3.00112E-002	-4.29606E-008	0.00000E+000	3.00000E-002	1.43907E-003	6	...........	-327.66
	617	123.6	2.00127E-002	-4.32045E-008	0.00000E+000	2.00000E-002	1.43436E-003	6	...........	-327.66
	618	123.8	1.00535E-002	-4.33035E-008	0.00000E+000	9.99999E-003	1.42529E-003	6	...........	-327.66
	619	124	-1.74245E-006	-4.35778E-008	0.00000E+000	-1.49012E-008	1.42544E-003	6	...........	-327.66
	620	124.2	-9.94830E-003	-4.37088E-008	0.00000E+000	-1.00000E-002	1.42133E-003	6	...........	-327.66
	621	124.4	-1.99459E-002	-4.39896E-008	0.00000E+000	-2.00000E-002	1.43429E-003	6	...........	-327.66
	622	124.6	-2.99553E-002	-4.41024E-008	0.00000E+000	-3.00000E-002	1.43102E-003	6	...........	-327.66
	623	124.8	-3.99361E-002	-4.44014E-008	0.00000E+000	-4.00000E-002	1.43219E-003	6	...........	-327.66
	624	125	-4.99950E-002	-4.46348E-008	0.00000E+000	-5.00000E-002	1.43412E-003	6	...........	-327.66
	625	125.2	-5.99769E-002	-4.48872E-008	0.00000E+000	-6.00000E-002	1.43436E-003	6	...........	-327.66
	626	125.4	-6.99361E-002	-4.50068E-008	0.00000E+000	-7.00000E-002	1.42905E-003	6	...........	-327.66
	627	125.6	-8.00041E-002	-4.52766E-008	0.00000E+000	-8.00000E-002	1.42093E-003	6	...........	-327.66
	628	125.8	-8.99519E-002	-4.55127E-008	0.00000E+000	-9.00000E-002	1.42527E-003	6	...........	-327.66
	629	126	-9.99794E-002	-4.57636E-008	0.00000E+000	-1.00000E-001	1.42625E-003	6	...........	-327.66
	630	126.2	-1.09964E-001	-4.60131E-008	0.00000E+000	-1.10000E-001	1.42957E-003	6	...........	-327.66
	631	126.4	-1.19980E-001	-4.62839E-008	0.00000E+000	-1.20000E-001	1.43366E-003	6	...........	-327.66
	632	126.6	-1.30001E-001	-4.64934E-008	0.00000E+000	-1.30000E-001	1.43337E-003	6	...........	-327.66
	633	126.8	-1.39947E-001	-4.67391E-008	0.00000E+000	-1.40000E-001	1.43134E-003	6	...........	-327.66
	634	127	-1.49989E-001	-4.69994E-008	0.00000E+000	-1.50000E-001	1.41338E-003	6	...........	-327.66
	635	127.2	-1.60000E-001	-4.73059E-008	0.00000E+000	-1.60000E-001	1.42530E-003	6	...........	-327.66
	636	127.4	-1.69959E-001	-4.75556E-008	0.00000E+000	-1.70000E-001	1.42649E-003	6	...........	-327.66
	637	127.6	-1.79990E-001	-4.79146E-008	0.00000E+000	-1.80000E-001	1.42889E-003	6	...........	-327.66
	638	127.8	-1.89868E-001	-4.81566E-008	0.00000E+000	-1.90000E-001	1.43240E-003	6	...........	-327.66
	639	128	-2.00006E-001	-4.85428E-008	0.00000E+000	-2.00000E-001	1.42785E-003	6	...........	-327.66
	640	128.2	-2.09971E-001	-4.87946E-008	0.00000E+000	-2.10000E-001	1.43090E-003	6	...........	-327.66
	641	128.4	-2.19886E-001	-4.91503E-008	0.00000E+000	-2.20000E-001	1.42994E-003	6	...........	-327.66
	642	128.6	-2.29955E-001	-4.94817E-008	0.00000E+000	-2.30000E-001	1.42604E-003	6	...........	-327.66
	643	128.8	-2.39990E-001	-4.99438E-008	0.00000E+000	-2.40000E-001	1.42559E-003	6	...........	-327.66
	644	129	-2.49969E-001	-5.03620E-008	0.00000E+000	-2.50000E-001	1.43092E-003	6	...........	-327.66
	645	129.2	-2.59976E-001	-5.07385E-008	0.00000E+000	-2.60000E-001	1.42570E-003	6	...........	-327.66
	646	129.4	-2.69904E-001	-5.11491E-008	0.00000E+000	-2.70000E-001	1.43622E-003	6	...........	-327.66
	647	129.6	-2.80001E-001	-5.16601E-008	0.00000E+000	-2.80000E-001	1.42979E-003	6	...........	-327.66
	648	129.8	-2.89950E-001	-5.21601E-008	0.00000E+000	-2.90000E-001	1.43619E-003	6	...........	-327.66
	649	130	-2.99961E-001	-5.26449E-008	0.00000E+000	-3.00000E-001	1.42894E-003	6	...........	-327.66
	650	130.2	-3.09958E-001	-5.31392E-008	0.00000E+000	-3.10000E-001	1.42834E-003	6	...........	-327.66
	651	130.4	-3.19989E-001	-5.37357E-008	0.00000E+000	-3.20000E-001	1.42897E-003	6	...........	-327.66
	652	130.6	-3.29984E-001	-5.42956E-008	0.00000E+000	-3.30000E-001	1.42825E-003	6	...........	-327.66
	653	130.8	-3.39987E-001	-5.49590E-008	0.00000E+000	-3.40000E-001	1.42545E-003	6	...........	-327.66
	654	131	-3.49947E-001	-5.54406E-008	0.00000E+000	-3.50000E-001	1.43967E-003	6	...........	-327.66
	655	131.2	-3.59987E-001	-5.60677E-008	0.00000E+000	-3.60000E-001	1.43512E-003	6	...........	-327.66
	656	131.4	-3.69841E-001	-5.66250E-008	0.00000E+000	-3.70000E-001	1.43214E-003	6	...........	-327.66
	657	131.6	-3.79972E-001	-5.72490E-008	0.00000E+000	-3.80000E-001	1.43904E-003	6	...........	-327.66
	658	131.8	-3.89933E-001	-5.77215E-008	0.00000E+000	-3.90000E-001	1.42885E-003	6	...........	-327.66
	659	132	-3.99956E-001	-5.82659E-008	0.00000E+000	-4.00000E-001	1.42865E-003	6	...........	-327.66
	660	132.2	-4.09960E-001	-5.87870E-008	0.00000E+000	-4.10000E-001	1.42930E-003	6	...........	-327.66
	661	132.4	-4.19944E-001	-5.93093E-008	0.00000E+000	-4.20000E-001	1.42712E-003	6	...........	-327.66
	662	132.6	-4.29926E-001	-5.97945E-008	0.00000E+000	-4.30000E-001	1.43507E-003	6	...........	-327.66
	663	132.8	-4.39974E-001	-6.03034E-008	0.00000E+000	-4.40000E-001	1.42949E-003	6	...........	-327.66
	664	133	-4.49886E-001	-6.07866E-008	0.00000E+000	-4.50000E-001	1.43976E-003	6	...........	-327.66
	665	133.2	-4.59949E-001	-6.13684E-008	0.00000E+000	-4.60000E-001	1.44007E-003	6	...........	-327.66
	666	133.4	-4.69804E-001	-6.18041E-008	0.00000E+000	-4.70000E-001	1.43260E-003	6	...........	-327.66
	667	133.6	-4.79923E-001	-6.23292E-008	0.00000E+000	-4.80000E-001	1.43060E-003	6	...........	-327.66
	668	133.8	-4.89933E-001	-6.27524E-008	0.00000E+000	-4.90000E-001	1.42400E-003	6	...........	-327.66
	669	134	-4.99854E-001	-6.32774E-008	0.00000E+000	-5.00000E-001	1.43584E-003	6	...........	-327.66
	670	134.2	-5.09886E-001	-6.37049E-008	0.00000E+000	-5.10000E-001	1.43339E-003	6	...........	-327.66
	671	134.4	-5.19979E-001	-6.42881E-008	0.00000E+000	-5.20000E-001	1.43702E-003	6	...........	-327.66
	672	134.6	-5.29915E-001	-6.46918E-008	0.00000E+000	-5.30000E-001	1.43424E-003	6	...........	-327.66
	673	134.8	-5.39948E-001	-6.52044E-008	0.00000E+000	-5.40000E-001	1.44259E-003	6	...........	-327.66
	674	135	-5.49809E-001	-6.56269E-008	0.00000E+000	-5.50000E-001	1.42692E-003	6	...........	-327.66
	675	135.2	-5.59951E-001	-6.60614E-008	0.00000E+000	-5.60000E-001	1.42897E-003	6	...........	-327.66
	676	135.4	-5.69863E-001	-6.64975E-008	0.00000E+000	-5.70000E-001	1.43651E-003	6	...........	-327.66
	677	135.6	-5.79839E-001	-6.68531E-008	0.00000E+000	-5.80000E-001	1.43347E-003	6	...........	-327.66
	678	135.8	-5.89889E-001	-6.71611E-008	0.00000E+000	-5.90000E-001	1.43867E-003	6	...........	-327.66
	679	136	-5.99902E-001	-6.75333E-008	0.00000E+000	-6.00000E-001	1.42987E-003	6	...........	-327.66
	680	136.2	-6.09904E-001	-6.78655E-008	0.00000E+000	-6.10000E-001	1.42775E-003	6	...........	-327.66
	681	136.4	-6.19937E-001	-6.81635E-008	0.00000E+000	-6.20000E-001	1.43224E-003	6	...........	-327.66
	682	136.6	-6.29821E-001	-6.83024E-008	0.00000E+000	-6.30000E-001	1.42677E-003	6	...........	-327.66
	683	136.8	-6.39943E-001	-6.85650E-008	0.00000E+000	-6.40000E-001	1.42167E-003	6	...........	-327.66
	684	137	-6.49759E-001	-6.87346E-008	0.00000E+000	-6.50000E-001	1.42482E-003	6	...........	-327.66
	685	137.2	-6.59858E-001	-6.89268E-008	0.00000E+000	-6.60000E-001	1.43524E-003	6	...........	-327.66
	686	137.4	-6.69778E-001	-6.88195E-008	0.00000E+000	-6.70000E-001	1.42987E-003	6	...........	-327.66
	687	137.6	-6.79825E-001	-6.87720E-008	0.00000E+000	-6.80000E-001	1.43264E-003	6	...........	-327.66
	688	137.8	-6.89860E-001	-6.84704E-008	0.00000E+000	-6.90000E-001	1.43591E-003	6	...........	-327.66
	689	138	-6.99933E-001	-6.80306E-008	0.00000E+000	-7.00000E-001	1.43624E-003	6	...........	-327.66
	690	138.2	-7.09819E-001	-6.71319E-008	0.00000E+000	-7.10000E-001	1.43411E-003	6	...........	-327.66
	691	138.4	-7.19956E-001	-6.60683E-008	0.00000E+000	-7.20000E-001	1.42325E-003	6	...........	-327.66
	692	138.6	-7.29834E-001	-6.46192E-008	0.00000E+000	-7.30000E-001	1.42747E-003	6	...........	-327.66
	693	138.8	-7.39927E-001	-6.29799E-008	0.00000E+000	-7.40000E-001	1.42424E-003	6	...........	-327.66
	694	139	-7.49831E-001	-6.09102E-008	0.00000E+000	-7.50000E-001	1.43431E-003	6	...........	-327.66
	695	139.2	-7.59887E-001	-5.86543E-008	0.00000E+000	-7.60000E-001	1.43080E-003	6	...........	-327.66
	696	139.4	-7.69873E-001	-5.61797E-008	0.00000E+000	-7.70000E-001	1.44281E-003	6	...........	-327.66
	697	139.6	-7.79857E-001	-5.35876E-008	0.00000E+000	-7.80000E-001	1.43142E-003	6	...........	-327.66
	698	139.8	-7.89862E-001	-5.08901E-008	0.00000E+000	-7.90000E-001	1.42647E-003	6	...........	-327.66
	699	140	-7.99948E-001	-4.81867E-008	0.00000E+000	-8.00000E-001	1.42505E-003	6	...........	-327.66
	700	140.2	-8.09834E-001	-4.52903E-008	0.00000E+000	-8.10000E-001	1.43175E-003	6	...........	-327.66
	701	140.4	-8.19912E-001	-4.25977E-008	0.00000E+000	-8.20000E-001	1.43829E-003	6	...........	-327.66
	702	140.6	-8.29742E-001	-3.98253E-008	0.00000E+000	-8.30000E-001	1.43332E-003	6	...........	-327.66
	703	140.8	-8.39911E-001	-3.74111E-008	0.00000E+000	-8.40000E-001	1.43792E-003	6	...........	-327.66
	704	141	-8.49868E-001	-3.50466E-008	0.00000E+000	-8.50000E-001	1.43549E-003	6	...........	-327.66
	705	141.2	-8.59819E-001	-3.29761E-008	0.00000E+000	-8.60000E-001	1.43265E-003	6	...........	-327.66
	706	141.4	-8.69878E-001	-3.11116E-008	0.00000E+000	-8.70000E-001	1.42790E-003	6	...........	-327.66
	707	141.6	-8.79937E-001	-2.94595E-008	0.00000E+000	-8.80000E-001	1.42685E-003	6	...........	-327.66
	708	141.8	-8.89877E-001	-2.79113E-008	0.00000E+000	-8.90000E-001	1.43020E-003	6	...........	-327.66
	709	142	-8.99948E-001	-2.65613E-008	0.00000E+000	-9.00000E-001	1.43060E-003	6	...........	-327.66
	710	142.2	-8.89943E-001	-2.21166E-008	0.00000E+000	-8.90000E-001	1.43579E-003	6	...........	-327.66
	711	142.4	-8.79971E-001	-1.95533E-008	0.00000E+000	-8.80000E-001	1.42814E-003	6	...........	-327.66
	712	142.6	-8.69981E-001	-1.76194E-008	0.00000E+000	-8.70000E-001	1.41580E-003	6	...........	-327.66
	713	142.8	-8.59870E-001	-1.58590E-008	0.00000E+000	-8.60000E-001	1.43030E-003	6	...........	-327.66
	714	143	-8.49943E-001	-1.42369E-008	0.00000E+000	-8.50000E-001	1.43577E-003	6	...........	-327.66
	715	143.2	-8.39999E-001	-1.25439E-008	0.00000E+000	-8.40000E-001	1.43572E-003	6	...........	-327.66
	716	143.4	-8.29795E-001	-1.08363E-008	0.00000E+000	-8.30000E-001	1.42517E-003	6	...........	-327.66
	717	143.6	-8.19981E-001	-8.97157E-009	0.00000E+000	-8.20000E-001	1.43529E-003	6	...........	-327.66
	718	143.8	-8.09879E-001	-6.88366E-009	0.00000E+000	-8.10000E-001	1.42995E-003	6	...........	-327.66
	719	144	-7.99958E-001	-4.57741E-009	0.00000E+000	-8.00000E-001	1.42689E-003	6	...........	-327.66
	720	144.2	-7.89920E-001	-1.81886E-009	0.00000E+000	-7.90000E-001	1.42637E-003	6	...........	-327.66
	721	144.4	-7.79967E-001	1.16232E-009	0.00000E+000	-7.80000E-001	1.44062E-003	6	...........	-327.66
	722	144.6	-7.69962E-001	4.59541E-009	0.00000E+000	-7.70000E-001	1.44262E-003	6	...........	-327.66
	723	144.8	-7.59969E-001	8.25046E-009	0.00000E+000	-7.60000E-001	1.43202E-003	6	...........	-327.66
	724	145	-7.49889E-001	1.23369E-008	0.00000E+000	-7.50000E-001	1.44309E-003	6	...........	-327.66
	725	145.2	-7.39979E-001	1.63968E-008	0.00000E+000	-7.40000E-001	1.42422E-003	6	...........	-327.66
	726	145.4	-7.29907E-001	2.05763E-008	0.00000E+000	-7.30000E-001	1.43522E-003	6	...........	-327.66
	727	145.6	-7.19976E-001	2.41423E-008	0.00000E+000	-7.20000E-001	1.42659E-003	6	...........	-327.66
	728	145.8	-7.09896E-001	2.69958E-008	0.00000E+000	-7.10000E-001	1.42884E-003	6	...........	-327.66
	729	146	-6.99945E-001	2.86734E-008	0.00000E+000	-7.00000E-001	1.43616E-003	6	...........	-327.66
	730	146.2	-6.89950E-001	2.95135E-008	0.00000E+000	-6.90000E-001	1.43434E-003	6	...........	-327.66
	731	146.4	-6.79908E-001	2.96807E-008	0.00000E+000	-6.80000E-001	1.43574E-003	6	...........	-327.66
	732	146.6	-6.69861E-001	2.95887E-008	0.00000E+000	-6.70000E-001	1.43434E-003	6	...........	-327.66
	733	146.8	-6.59954E-001	2.93161E-008	0.00000E+000	-6.60000E-001	1.43502E-003	6	...........	-327.66
	734	147	-6.49910E-001	2.92815E-008	0.00000E+000	-6.50000E-001	1.42949E-003	6	...........	-327.66
	735	147.2	-6.39988E-001	2.92872E-008	0.00000E+000	-6.40000E-001	1.42784E-003	6	...........	-327.66
	736	147.4	-6.29900E-001	2.93952E-008	0.00000E+000	-6.30000E-001	1.43075E-003	6	...........	-327.66
	737	147.6	-6.19978E-001	2.94272E-008	0.00000E+000	-6.20000E-001	1.43404E-003	6	...........	-327.66
	738	147.8	-6.09993E-001	2.95700E-008	0.00000E+000	-6.10000E-001	1.44608E-003	6	...........	-327.66
	739	148	-5.99990E-001	2.98305E-008	0.00000E+000	-6.00000E-001	1.43882E-003	6	...........	-327.66
	740	148.2	-5.89966E-001	3.00859E-008	0.00000E+000	-5.90000E-001	1.43616E-003	6	...........	-327.66
	741	148.4	-5.79925E-001	3.02865E-008	0.00000E+000	-5.80000E-001	1.43764E-003	6	...........	-327.66
	742	148.6	-5.69984E-001	3.05964E-008	0.00000E+000	-5.70000E-001	1.43284E-003	6	...........	-327.66
	743	148.8	-5.60017E-001	3.08980E-008	0.00000E+000	-5.60000E-001	1.42515E-003	6	...........	-327.66
	744	149	-5.49885E-001	3.12873E-008	0.00000E+000	-5.50000E-001	1.42435E-003	6	...........	-327.66
	745	149.2	-5.40000E-001	3.15919E-008	0.00000E+000	-5.40000E-001	1.43841E-003	6	...........	-327.66
	746	149.4	-5.29980E-001	3.20147E-008	0.00000E+000	-5.30000E-001	1.43927E-003	6	...........	-327.66
	747	149.6	-5.20028E-001	3.23759E-008	0.00000E+000	-5.20000E-001	1.43899E-003	6	...........	-327.66
	748	149.8	-5.09957E-001	3.29543E-008	0.00000E+000	-5.10000E-001	1.43567E-003	6	...........	-327.66
	749	150	-4.99911E-001	3.34001E-008	0.00000E+000	-5.00000E-001	1.43736E-003	6	...........	-327.66
	750	150.2	-4.89985E-001	3.38893E-008	0.00000E+000	-4.90000E-001	1.42789E-003	6	...........	-327.66
	751	150.4	-4.79992E-001	3.43444E-008	0.00000E+000	-4.80000E-001	1.42775E-003	6	...........	-327.66
	752	150.6	-4.69891E-001	3.49662E-008	0.00000E+000	-4.70000E-001	1.43826E-003	6	...........	-327.66
	753	150.8	-4.59989E-001	3.54907E-008	0.00000E+000	-4.60000E-001	1.43467E-003	6	...........	-327.66
	754	151	-4.49923E-001	3.62349E-008	0.00000E+000	-4.50000E-001	1.43554E-003	6	...........	-327.66
	755	151.2	-4.40002E-001	3.68293E-008	0.00000E+000	-4.40000E-001	1.44034E-003	6	...........	-327.66
	756	151.4	-4.29978E-001	3.73744E-008	0.00000E+000	-4.30000E-001	1.43207E-003	6	...........	-327.66
	757	151.6	-4.19985E-001	3.79631E-008	0.00000E+000	-4.20000E-001	1.43441E-003	6	...........	-327.66
	758	151.8	-4.09996E-001	3.85921E-008	0.00000E+000	-4.10000E-001	1.43105E-003	6	...........	-327.66
	759	152	-3.99996E-001	3.92229E-008	0.00000E+000	-4.00000E-001	1.42950E-003	6	...........	-327.66
	760	152.2	-3.89956E-001	3.98957E-008	0.00000E+000	-3.90000E-001	1.43254E-003	6	...........	-327.66
	761	152.4	-3.80005E-001	4.04343E-008	0.00000E+000	-3.80000E-001	1.43729E-003	6	...........	-327.66
	762	152.6	-3.69925E-001	4.11731E-008	0.00000E+000	-3.70000E-001	1.43664E-003	6	...........	-327.66
	763	152.8	-3.60013E-001	4.17096E-008	0.00000E+000	-3.60000E-001	1.43744E-003	6	...........	-327.66
	764	153	-3.49994E-001	4.24480E-008	0.00000E+000	-3.50000E-001	1.43674E-003	6	...........	-327.66
	765	153.2	-3.40012E-001	4.29119E-008	0.00000E+000	-3.40000E-001	1.43070E-003	6	...........	-327.66
	766	153.4	-3.30012E-001	4.35296E-008	0.00000E+000	-3.30000E-001	1.42570E-003	6	...........	-327.66
	767	153.6	-3.20015E-001	4.41063E-008	0.00000E+000	-3.20000E-001	1.42944E-003	6	...........	-327.66
	768	153.8	-3.09989E-001	4.47142E-008	0.00000E+000	-3.10000E-001	1.42080E-003	6	...........	-327.66
	769	154	-2.99996E-001	4.51124E-008	0.00000E+000	-3.00000E-001	1.43499E-003	6	...........	-327.66
	770	154.2	-2.89968E-001	4.56373E-008	0.00000E+000	-2.90000E-001	1.43582E-003	6	...........	-327.66
	771	154.4	-2.80025E-001	4.61127E-008	0.00000E+000	-2.80000E-001	1.43164E-003	6	...........	-327.66
	772	154.6	-2.69945E-001	4.66514E-008	0.00000E+000	-2.70000E-001	1.43052E-003	6	...........	-327.66
	773	154.8	-2.60000E-001	4.69796E-008	0.00000E+000	-2.60000E-001	1.42850E-003	6	...........	-327.66
	774	155	-2.50010E-001	4.73733E-008	0.00000E+000	-2.50000E-001	1.42985E-003	6	...........	-327.66
	775	155.2	-2.40025E-001	4.77366E-008	0.00000E+000	-2.40000E-001	1.42815E-003	6	...........	-327.66
	776	155.4	-2.29995E-001	4.82550E-008	0.00000E+000	-2.30000E-001	1.42784E-003	6	...........	-327.66
	777	155.6	-2.19928E-001	4.85416E-008	0.00000E+000	-2.20000E-001	1.43010E-003	6	...........	-327.66
	778	155.8	-2.10002E-001	4.89168E-008	0.00000E+000	-2.10000E-001	1.43436E-003	6	...........	-327.66
	779	156	-2.00048E-001	4.90919E-008	0.00000E+000	-2.00000E-001	1.42979E-003	6	...........	-327.66
	780	156.2	-1.89924E-001	4.94633E-008	0.00000E+000	-1.90000E-001	1.42842E-003	6	...........	-327.66
	781	156.4	-1.80017E-001	4.97286E-008	0.00000E+000	-1.80000E-001	1.42565E-003	6	...........	-327.66
	782	156.6	-1.70011E-001	5.00878E-008	0.00000E+000	-1.70000E-001	1.42390E-003	6	...........	-327.66
	783	156.8	-1.60027E-001	5.01715E-008	0.00000E+000	-1.60000E-001	1.42600E-003	6	...........	-327.66
	784	157	-1.50028E-001	5.05019E-008	0.00000E+000	-1.50000E-001	1.42434E-003	6	...........	-327.66
	785	157.2	-1.40001E-001	5.07813E-008	0.00000E+000	-1.40000E-001	1.43674E-003	6	...........	-327.66
	786	157.4	-1.30022E-001	5.10771E-008	0.00000E+000	-1.30000E-001	1.43621E-003	6	...........	-327.66
	787	157.6	-1.20011E-001	5.13204E-008	0.00000E+000	-1.20000E-001	1.43667E-003	6	...........	-327.66
	788	157.8	-1.10003E-001	5.13810E-008	0.00000E+000	-1.10000E-001	1.43205E-003	6	...........	-327.66
	789	158	-1.00016E-001	5.15411E-008	0.00000E+000	-1.00000E-001	1.42087E-003	6	...........	-327.66
	790	158.2	-8.99930E-002	5.19611E-008	0.00000E+000	-9.00000E-002	1.42960E-003	6	...........	-327.66
	791	158.4	-8.00235E-002	5.21226E-008	0.00000E+000	-8.00000E-002	1.42102E-003	6	...........	-327.66
	792	158.6	-6.99959E-002	5.21687E-008	0.00000E+000	-7.00000E-002	1.42514E-003	6	...........	-327.66
	793	158.8	-6.00152E-002	5.22706E-008	0.00000E+000	-6.00000E-002	1.42989E-003	6	...........	-327.66
	794	159	-5.00318E-002	5.24958E-008	0.00000E+000	-5.00000E-002	1.43362E-003	6	...........	-327.66
	795	159.2	-3.99775E-002	5.27419E-008	0.00000E+000	-4.00000E-002	1.43240E-003	6	...........	-327.66
	796	159.4	-2.99870E-002	5.29541E-008	0.00000E+000	-3.00000E-002	1.42934E-003	6	...........	-327.66
	797	159.6	-1.99993E-002	5.29311E-008	0.00000E+000	-2.00000E-002	1.43025E-003	6	...........	-327.66
	798	159.8	-1.00082E-002	5.31786E-008	0.00000E+000	-1.00000E-002	1.42377E-003	6	...........	-327.66
	799	160	-2.66507E-005	5.32759E-008	0.00000E+000	-1.49012E-008	1.42502E-003	6	...........	-327.66
	800	160.2	1.00138E-002	5.34931E-008	0.00000E+000	9.99999E-003	1.41745E-003	6	...........	-327.66
	801	160.4	2.00007E-002	5.35046E-008	0.00000E+000	2.00000E-002	1.42765E-003	6	...........	-327.66
	802	160.6	2.99958E-002	5.36651E-008	0.00000E+000	3.00000E-002	1.43381E-003	6	...........	-327.66
	803	160.8	3.98024E-002	5.38741E-008	0.00000E+000	4.00000E-002	1.43177E-003	6	...........	-327.66
	804	161	5.00152E-002	5.41352E-008	0.00000E+000	5.00000E-002	1.43504E-003	6	...........	-327.66
	805	161.2	6.00037E-002	5.42094E-008	0.00000E+000	6.00000E-002	1.42622E-003	6	...........	-327.66
	806	161.4	7.00052E-002	5.43774E-008	0.00000E+000	7.00000E-002	1.43057E-003	6	...........	-327.66
	807	161.6	7.99722E-002	5.45728E-008	0.00000E+000	8.00000E-002	1.43005E-003	6	...........	-327.66
	808	161.8	9.00666E-002	5.47784E-008	0.00000E+000	9.00000E-002	1.43055E-003	6	...........	-327.66
	809	162	9.99891E-002	5.49241E-008	0.00000E+000	1.00000E-001	1.43260E-003	6	...........	-327.66
	810	162.2	1.09991E-001	5.52074E-008	0.00000E+000	1.10000E-001	1.43811E-003	6	...........	-327.66
	811	162.4	1.19996E-001	5.54204E-008	0.00000E+000	1.20000E-001	1.43164E-003	6	...........	-327.66
	812	162.6	1.30014E-001	5.57379E-008	0.00000E+000	1.30000E-001	1.43207E-003	6	...........	-327.66
	813	162.8	1.40043E-001	5.58889E-008	0.00000E+000	1.40000E-001	1.43335E-003	6	...........	-327.66
	814	163	1.50010E-001	5.61506E-008	0.00000E+000	1.50000E-001	1.42860E-003	6	...........	-327.66
	815	163.2	1.59979E-001	5.63222E-008	0.00000E+000	1.60000E-001	1.42724E-003	6	...........	-327.66
	816	163.4	1.70066E-001	5.66288E-008	0.00000E+000	1.70000E-001	1.43200E-003	6	...........	-327.66
	817	163.6	1.79989E-001	5.67399E-008	0.00000E+000	1.80000E-001	1.43244E-003	6	...........	-327.66
	818	163.8	1.89997E-001	5.69586E-008	0.00000E+000	1.90000E-001	1.43919E-003	6	...........	-327.66
	819	164	1.99981E-001	5.71516E-008	0.00000E+000	2.00000E-001	1.43300E-003	6	...........	-327.66
	820	164.2	2.09979E-001	5.73607E-008	0.00000E+000	2.10000E-001	1.43917E-003	6	...........	-327.66
	821	164.4	2.19942E-001	5.74698E-008	0.00000E+000	2.20000E-001	1.43239E-003	6	...........	-327.66
	822	164.6	2.29990E-001	5.76373E-008	0.00000E+000	2.30000E-001	1.43436E-003	6	...........	-327.66
	823	164.8	2.39956E-001	5.78135E-008	0.00000E+000	2.40000E-001	1.42550E-003	6	...........	-327.66
	824	165	2.50009E-001	5.80445E-008	0.00000E+000	2.50000E-001	1.43329E-003	6	...........	-327.66
	825	165.2	2.59972E-001	5.80804E-008	0.00000E+000	2.60000E-001	1.44114E-003	6	...........	-327.66
	826	165.4	2.70004E-001	5.84092E-008	0.00000E+000	2.70000E-001	1.43574E-003	6	...........	-327.66
	827	165.6	2.79955E-001	5.85655E-008	0.00000E+000	2.80000E-001	1.43972E-003	6	...........	-327.66
	828	165.8	2.89966E-001	5.88022E-008	0.00000E+000	2.90000E-001	1.43094E-003	6	...........	-327.66
	829	166	2.99979E-001	5.89235E-008	0.00000E+000	3.00000E-001	1.42714E-003	6	...........	-327.66
	830	166.2	3.09979E-001	5.91634E-008	0.00000E+000	3.10000E-001	1.42472E-003	6	...........	-327.66
	831	166.4	3.19967E-001	5.93913E-008	0.00000E+000	3.20000E-001	1.42459E-003	6	...........	-327.66
	832	166.6	3.29990E-001	5.96823E-008	0.00000E+000	3.30000E-001	1.43175E-003	6	...........	-327.66
	833	166.8	3.39979E-001	5.98731E-008	0.00000E+000	3.40000E-001	1.43124E-003	6	...........	-327.66
	834	167	3.50003E-001	6.01763E-008	0.00000E+000	3.50000E-001	1.43641E-003	6	...........	-327.66
	835	167.2	3.59933E-001	6.04876E-008	0.00000E+000	3.60000E-001	1.42709E-003	6	...........	-327.66
	836	167.4	3.69978E-001	6.08034E-008	0.00000E+000	3.70000E-001	1.42704E-003	6	...........	-327.66
	837	167.6	3.79982E-001	6.10584E-008	0.00000E+000	3.80000E-001	1.42862E-003	6	...........	-327.66
	838	167.8	3.89970E-001	6.13457E-008	0.00000E+000	3.90000E-001	1.43189E-003	6	...........	-327.66
	839	168	3.99960E-001	6.17127E-008	0.00000E+000	4.00000E-001	1.43255E-003	6	...........	-327.66
	840	168.2	4.09967E-001	6.20706E-008	0.00000E+000	4.10000E-001	1.42235E-003	6	...........	-327.66
	841	168.4	4.19990E-001	6.24090E-008	0.00000E+000	4.20000E-001	1.43394E-003	6	...........	-327.66
	842	168.6	4.29977E-001	6.28425E-008	0.00000E+000	4.30000E-001	1.43264E-003	6	...........	-327.66
	843	168.8	4.39941E-001	6.32246E-008	0.00000E+000	4.40000E-001	1.43516E-003	6	...........	-327.66
	844	169	4.50008E-001	6.36981E-008	0.00000E+000	4.50000E-001	1.42789E-003	6	...........	-327.66
	845	169.2	4.59976E-001	6.40756E-008	0.00000E+000	4.60000E-001	1.42807E-003	6	...........	-327.66
	846	169.4	4.69949E-001	6.46036E-008	0.00000E+000	4.70000E-001	1.43032E-003	6	...........	-327.66
	847	169.6	4.79948E-001	6.50668E-008	0.00000E+000	4.80000E-001	1.42605E-003	6	...........	-327.66
	848	169.8	4.89957E-001	6.56468E-008	0.00000E+000	4.90000E-001	1.42540E-003	6	...........	-327.66
	849	170	4.99991E-001	6.61440E-008	0.00000E+000	5.00000E-001	1.42844E-003	6	...........	-327.66
	850	170.2	5.09965E-001	6.67398E-008	0.00000E+000	5.10000E-001	1.44042E-003	6	...........	-327.66
	851	170.4	5.19949E-001	6.74054E-008	0.00000E+000	5.20000E-001	1.43514E-003	6	...........	-327.66
	852	170.6	5.29995E-001	6.80923E-008	0.00000E+000	5.30000E-001	1.43179E-003	6	...........	-327.66
	853	170.8	5.39976E-001	6.87555E-008	0.00000E+000	5.40000E-001	1.42964E-003	6	...........	-327.66
	854	171	5.49974E-001	6.95536E-008	0.00000E+000	5.50000E-001	1.42849E-003	6	...........	-327.66
	855	171.2	5.59959E-001	7.04311E-008	0.00000E+000	5.60000E-001	1.43064E-003	6	...........	-327.66
	856	171.4	5.69967E-001	7.14202E-008	0.00000E+000	5.70000E-001	1.42705E-003	6	...........	-327.66
	857	171.6	5.79975E-001	7.24052E-008	0.00000E+000	5.80000E-001	1.43571E-003	6	...........	-327.66
	858	171.8	5.89960E-001	7.36186E-008	0.00000E+000	5.90000E-001	1.43167E-003	6	...........	-327.66
	859	172	5.99962E-001	7.49303E-008	0.00000E+000	6.00000E-001	1.43539E-003	6	...........	-327.66
CURVE4	TABLE
	Pt	T	Vf	Im	Vu	Sig	Ach	IERange	Over	Temp
	#	s	V vs. Ref.	A	V	V	V	#	bits	deg C
	860	172.2	5.89985E-001	-6.42151E-009	0.00000E+000	5.90000E-001	1.43591E-003	6	...........	-327.66
	861	172.4	5.79994E-001	-1.42761E-008	0.00000E+000	5.80000E-001	1.43857E-003	6	...........	-327.66
	862	172.6	5.69989E-001	-1.89343E-008	0.00000E+000	5.70000E-001	1.42760E-003	6	...........	-327.66
	863	172.8	5.59966E-001	-2.22849E-008	0.00000E+000	5.60000E-001	1.42599E-003	6	...........	-327.66
	864	173	5.49995E-001	-2.46866E-008	0.00000E+000	5.50000E-001	1.43270E-003	6	...........	-327.66
	865	173.2	5.39998E-001	-2.65942E-008	0.00000E+000	5.40000E-001	1.42635E-003	6	...........	-327.66
	866	173.4	5.30015E-001	-2.80166E-008	0.00000E+000	5.30000E-001	1.42857E-003	6	...........	-327.66
	867	173.6	5.19982E-001	-2.91988E-008	0.00000E+000	5.20000E-001	1.43499E-003	6	...........	-327.66
	868	173.8	5.09975E-001	-3.01972E-008	0.00000E+000	5.10000E-001	1.43771E-003	6	...........	-327.66
	869	174	5.00015E-001	-3.10112E-008	0.00000E+000	5.00000E-001	1.43909E-003	6	...........	-327.66
	870	174.2	4.89977E-001	-3.17464E-008	0.00000E+000	4.90000E-001	1.43010E-003	6	...........	-327.66
	871	174.4	4.79960E-001	-3.23941E-008	0.00000E+000	4.80000E-001	1.43017E-003	6	...........	-327.66
	872	174.6	4.69977E-001	-3.29503E-008	0.00000E+000	4.70000E-001	1.43584E-003	6	...........	-327.66
	873	174.8	4.59998E-001	-3.34369E-008	0.00000E+000	4.60000E-001	1.43275E-003	6	...........	-327.66
	874	175	4.50013E-001	-3.38168E-008	0.00000E+000	4.50000E-001	1.43434E-003	6	...........	-327.66
	875	175.2	4.39939E-001	-3.42727E-008	0.00000E+000	4.40000E-001	1.43257E-003	6	...........	-327.66
	876	175.4	4.29995E-001	-3.46252E-008	0.00000E+000	4.30000E-001	1.43819E-003	6	...........	-327.66
	877	175.6	4.20046E-001	-3.49513E-008	0.00000E+000	4.20000E-001	1.43657E-003	6	...........	-327.66
	878	175.8	4.09988E-001	-3.52446E-008	0.00000E+000	4.10000E-001	1.42519E-003	6	...........	-327.66
	879	176	3.99987E-001	-3.56036E-008	0.00000E+000	4.00000E-001	1.42782E-003	6	...........	-327.66
	880	176.2	3.89992E-001	-3.58781E-008	0.00000E+000	3.90000E-001	1.43746E-003	6	...........	-327.66
	881	176.4	3.80001E-001	-3.61512E-008	0.00000E+000	3.80000E-001	1.43654E-003	6	...........	-327.66
	882	176.6	3.70027E-001	-3.63577E-008	0.00000E+000	3.70000E-001	1.43891E-003	6	...........	-327.66
	883	176.8	3.59973E-001	-3.66719E-008	0.00000E+000	3.60000E-001	1.43524E-003	6	...........	-327.66
	884	177	3.50024E-001	-3.68451E-008	0.00000E+000	3.50000E-001	1.43402E-003	6	...........	-327.66
	885	177.2	3.40012E-001	-3.70994E-008	0.00000E+000	3.40000E-001	1.44107E-003	6	...........	-327.66
	886	177.4	3.30019E-001	-3.72346E-008	0.00000E+000	3.30000E-001	1.43477E-003	6	...........	-327.66
	887	177.6	3.19995E-001	-3.74982E-008	0.00000E+000	3.20000E-001	1.43000E-003	6	...........	-327.66
	888	177.8	3.09993E-001	-3.77199E-008	0.00000E+000	3.10000E-001	1.43374E-003	6	...........	-327.66
	889	178	3.00000E-001	-3.79736E-008	0.00000E+000	3.00000E-001	1.43589E-003	6	...........	-327.66
	890	178.2	2.90007E-001	-3.80757E-008	0.00000E+000	2.90000E-001	1.43742E-003	6	...........	-327.66
	891	178.4	2.79982E-001	-3.83317E-008	0.00000E+000	2.80000E-001	1.43991E-003	6	...........	-327.66
	892	178.6	2.70092E-001	-3.84739E-008	0.00000E+000	2.70000E-001	1.43549E-003	6	...........	-327.66
	893	178.8	2.60005E-001	-3.87562E-008	0.00000E+000	2.60000E-001	1.43597E-003	6	...........	-327.66
	894	179	2.50047E-001	-3.88058E-008	0.00000E+000	2.50000E-001	1.42579E-003	6	...........	-327.66
	895	179.2	2.40002E-001	-3.90740E-008	0.00000E+000	2.40000E-001	1.43022E-003	6	...........	-327.66
	896	179.4	2.29998E-001	-3.92499E-008	0.00000E+000	2.30000E-001	1.43184E-003	6	...........	-327.66
	897	179.6	2.20006E-001	-3.95071E-008	0.00000E+000	2.20000E-001	1.43265E-003	6	...........	-327.66
	898	179.8	2.10001E-001	-3.96181E-008	0.00000E+000	2.10000E-001	1.42989E-003	6	...........	-327.66
	899	180	2.00001E-001	-3.98350E-008	0.00000E+000	2.00000E-001	1.43506E-003	6	...........	-327.66
	900	180.2	1.90048E-001	-3.99903E-008	0.00000E+000	1.90000E-001	1.44241E-003	6	...........	-327.66
