EXPLAIN
TAG	CV
TITLE	LABEL	CV50000	Test Identifier
DATE	LABEL	5/9/2025	Date
TIME	LABEL	15:36:36	Time
NOTES	NOTES	1	Notes...
	
PSTAT	PSTAT	REF600P-43058	Potentiostat
VINIT	POTEN	0.00000E+000	T	Initial E (V)
VLIMIT1	POTEN	-9.00000E-001	F	Scan Limit 1 (V)
VLIMIT2	POTEN	6.00000E-001	F	Scan Limit 2 (V)
VFINAL	POTEN	0.00000E+000	T	Final E (V)
SCANRATE	QUANT	4.99999E+004	Scan Rate (mV/s)
STEPSIZE	QUANT	1.00000E+001	Step Size (mV)
CYCLES	IQUANT	3	Cycles (#)
IMODE	SELECTOR	1	I/E Range Mode
IRANGE	QUANT	1.00000E-002	Max Current (mA)
AREA	QUANT	1.00000E+000	Sample Area (cm^2)
EQDELAY	QUANT	5.00000E+000	Equil. Time (s)
IRCOMP	SELECTOR	0	IRComp
PFCOR	QUANT	5.00000E+001	PF Corr. (ohm)
SAMPLINGMODE	SELECTOR	2	Sampling Mode
EOC	QUANT	0.1530634	Open Circuit (V)
ELECTRODETYPE	SELECTOR	0	Electrode Type
STRIPPING	TOGGLE	F	Used for Stripping
SEQUENCER	TOGGLE	TRUE	Run as Sequence
PSTATMODEL	IQUANT	7	Pstat Model
PSTATSECTION	LABEL	REF600P-43058	Pstat Section
PSTATSERIALNO	LABEL	43058	Pstat Serial Number
CTRLMODE	IQUANT	1	Control Mode
ELECTROMETER	IQUANT	0	RE=0 or CS=1
IESTAB	IQUANT	2	I/E Stability
CASPEED	IQUANT	4	Control Amp Speed
CONVENTION	IQUANT	1	Current Convention
ICHRANGE	IQUANT	2	Ich Range
ICHRANGEMODE	TOGGLE	F	Ich Auto Range
ICHOFFSETENABLE	TOGGLE	F	Ich Offset Enable
ICHOFFSET	QUANT	0	Ich Offset (V)
ICHFILTER	IQUANT	1	Ich Filter
VCHRANGE	IQUANT	2	Vch Range
VCHRANGEMODE	TOGGLE	F	Vch Auto Range
VCHOFFSETENABLE	TOGGLE	F	Vch Offset Enable
VCHOFFSET	QUANT	0	Vch Offset (V)
VCHFILTER	IQUANT	1	Vch Filter
ACHRANGE	IQUANT	2	Ach Range
ACHOFFSETENABLE	TOGGLE	F	Ach Offset Enable
ACHOFFSET	QUANT	0	Ach Offset (V)
ACHFILTER	IQUANT	1	Ach Filter
IERANGELOWERLIMIT	IQUANT	1	I/E Range Lower Limit
IERANGEMODE	TOGGLE	F	I/E AutoRange
IERANGE	IQUANT	7	I/E Range
POSFEEDENABLE	TOGGLE	F	Positive Feedback IR Comp
POSFEEDRESISTANCE	QUANT	0	Positive Feedback Resistance (ohm)
ACHSELECT	IQUANT	4	Ach Select
SENSECABLEID	IQUANT	7	Sense Cable ID
PWRCABLEID	IQUANT	7	Power Cable ID
DCCALDATE	LABEL	5/8/2025	DC Calibration Date
ACCALDATE	LABEL	5/8/2025	AC Calibration Date
THERMOSELECT	IQUANT	1	Thermo Select
FRAMEWORKVERSION	LABEL	7.10.4	Framework Version
INSTRUMENTVERSION	LABEL	5.01	Instrument Version
COMMVERSION	LABEL	5.10	Communications Version
CPUPLDVERSION	LABEL	6.00	CPU PLD Version
CTRLPLDVERSION	LABEL	3.21	CTRL PLD Version
PSTATPLDVERSION	LABEL	0.00	PSTAT PLD Version
CURVE1	TABLE
	Pt	T	Vf	Im	Vu	Sig	Ach	IERange	Over	Temp
	#	s	V vs. Ref.	A	V	V	V	#	bits	deg C
	0	0.0002	1.53137E-001	1.04053E-008	0.00000E+000	1.53050E-001	1.29022E-003	7	...........	-327.66
	1	0.0004	1.43237E-001	-1.21201E-006	0.00000E+000	1.43050E-001	1.09022E-003	7	...........	-327.66
	2	0.0006	1.33150E-001	-2.35017E-006	0.00000E+000	1.33050E-001	1.06522E-003	7	...........	-327.66
	3	0.0008	1.23112E-001	-3.28629E-006	0.00000E+000	1.23050E-001	1.04022E-003	7	...........	-327.66
	4	0.001	1.13200E-001	-4.10291E-006	0.00000E+000	1.13050E-001	1.14022E-003	7	...........	-327.66
	5	0.0012	1.03137E-001	-4.82775E-006	0.00000E+000	1.03050E-001	1.24022E-003	7	...........	-327.66
	6	0.0014	9.31248E-002	-5.48434E-006	0.00000E+000	9.30500E-002	1.16522E-003	7	...........	-327.66
	7	0.0016	8.31123E-002	-6.09393E-006	0.00000E+000	8.30500E-002	9.90224E-004	7	...........	-327.66
	8	0.0018	7.31373E-002	-6.65350E-006	0.00000E+000	7.30500E-002	1.21522E-003	7	...........	-327.66
	9	0.002	6.32623E-002	-7.18833E-006	0.00000E+000	6.30500E-002	1.19022E-003	7	...........	-327.66
	10	0.0022	5.31248E-002	-7.69789E-006	0.00000E+000	5.30500E-002	1.09022E-003	7	...........	-327.66
	11	0.0024	4.31498E-002	-8.18121E-006	0.00000E+000	4.30500E-002	1.06522E-003	7	...........	-327.66
	12	0.0026	3.32123E-002	-8.64952E-006	0.00000E+000	3.30500E-002	1.01522E-003	7	...........	-327.66
	13	0.0028	2.31873E-002	-9.09158E-006	0.00000E+000	2.30500E-002	1.14022E-003	7	...........	-327.66
	14	0.003	1.32373E-002	-9.52439E-006	0.00000E+000	1.30500E-002	1.21522E-003	7	...........	-327.66
	15	0.0032	3.16231E-003	-9.95020E-006	0.00000E+000	3.04998E-003	1.04022E-003	7	...........	-327.66
	16	0.0034	-6.85019E-003	-1.03620E-005	0.00000E+000	-6.95001E-003	1.11522E-003	7	...........	-327.66
	17	0.0036	-1.67502E-002	-1.07613E-005	0.00000E+000	-1.69500E-002	1.11522E-003	7	...........	-327.66
	18	0.0038	-2.67627E-002	-1.11509E-005	0.00000E+000	-2.69500E-002	1.11522E-003	7	...........	-327.66
	19	0.004	-3.68127E-002	-1.15367E-005	0.00000E+000	-3.69500E-002	9.40224E-004	7	...........	-327.66
	20	0.0042	-4.68502E-002	-1.19172E-005	0.00000E+000	-4.69500E-002	1.06522E-003	7	...........	-327.66
	21	0.0044	-5.68627E-002	-1.22903E-005	0.00000E+000	-5.69500E-002	1.11522E-003	7	...........	-327.66
	22	0.0046	-6.67627E-002	-1.26588E-005	0.00000E+000	-6.69500E-002	1.11522E-003	7	...........	-327.66
	23	0.0048	-7.68627E-002	-1.30204E-005	0.00000E+000	-7.69500E-002	1.06522E-003	7	...........	-327.66
	24	0.005	-8.67127E-002	-1.33814E-005	0.00000E+000	-8.69500E-002	1.19022E-003	7	...........	-327.66
	25	0.0052	-9.68502E-002	-1.37360E-005	0.00000E+000	-9.69500E-002	1.19022E-003	7	...........	-327.66
	26	0.0054	-1.06838E-001	-1.40893E-005	0.00000E+000	-1.06950E-001	9.65224E-004	7	...........	-327.66
	27	0.0056	-1.16813E-001	-1.44378E-005	0.00000E+000	-1.16950E-001	1.29022E-003	7	...........	-327.66
	28	0.0058	-1.26800E-001	-1.47884E-005	0.00000E+000	-1.26950E-001	1.11522E-003	7	...........	-327.66
	29	0.006	-1.36863E-001	-1.51317E-005	0.00000E+000	-1.36950E-001	1.16522E-003	7	...........	-327.66
	30	0.0062	-1.46775E-001	-1.54762E-005	0.00000E+000	-1.46950E-001	9.40224E-004	7	...........	-327.66
	31	0.0064	-1.56888E-001	-1.58148E-005	0.00000E+000	-1.56950E-001	1.14022E-003	7	...........	-327.66
	32	0.0066	-1.66788E-001	-1.61535E-005	0.00000E+000	-1.66950E-001	1.21522E-003	7	...........	-327.66
	33	0.0068	-1.76863E-001	-1.64911E-005	0.00000E+000	-1.76950E-001	1.16522E-003	7	...........	-327.66
	34	0.007	-1.86775E-001	-1.68341E-005	0.00000E+000	-1.86950E-001	1.06522E-003	7	...........	-327.66
	35	0.0072	-1.96800E-001	-1.71647E-005	0.00000E+000	-1.96950E-001	1.04022E-003	7	...........	-327.66
	36	0.0074	-2.06688E-001	-1.75025E-005	0.00000E+000	-2.06950E-001	1.14022E-003	7	...........	-327.66
	37	0.0076	-2.16763E-001	-1.78348E-005	0.00000E+000	-2.16950E-001	1.21522E-003	7	...........	-327.66
	38	0.0078	-2.26688E-001	-1.81686E-005	0.00000E+000	-2.26950E-001	9.90224E-004	7	...........	-327.66
	39	0.008	-2.36775E-001	-1.85041E-005	0.00000E+000	-2.36950E-001	1.19022E-003	7	...........	-327.66
	40	0.0082	-2.46688E-001	-1.88344E-005	0.00000E+000	-2.46950E-001	1.19022E-003	7	...........	-327.66
	41	0.0084	-2.56825E-001	-1.91687E-005	0.00000E+000	-2.56950E-001	1.16522E-003	7	...........	-327.66
	42	0.0086	-2.66600E-001	-1.94988E-005	0.00000E+000	-2.66950E-001	1.11522E-003	7	...........	-327.66
	43	0.0088	-2.76800E-001	-1.98330E-005	0.00000E+000	-2.76950E-001	1.16522E-003	7	...........	-327.66
	44	0.009	-2.86763E-001	-2.01608E-005	0.00000E+000	-2.86950E-001	1.14022E-003	7	...........	-327.66
	45	0.0092	-2.96763E-001	-2.04951E-005	0.00000E+000	-2.96950E-001	1.21522E-003	7	...........	-327.66
	46	0.0094	-3.06688E-001	-2.08257E-005	0.00000E+000	-3.06950E-001	1.11522E-003	7	...........	-327.66
	47	0.0096	-3.16788E-001	-2.11537E-005	0.00000E+000	-3.16950E-001	1.11522E-003	7	...........	-327.66
	48	0.0098	-3.26775E-001	-2.14818E-005	0.00000E+000	-3.26950E-001	1.19022E-003	7	...........	-327.66
	49	0.01	-3.36863E-001	-2.18118E-005	0.00000E+000	-3.36950E-001	1.14022E-003	7	...........	-327.66
	50	0.0102	-3.46800E-001	-2.21409E-005	0.00000E+000	-3.46950E-001	1.09022E-003	7	...........	-327.66
	51	0.0104	-3.56813E-001	-2.24684E-005	0.00000E+000	-3.56950E-001	1.01522E-003	7	...........	-327.66
	52	0.0106	-3.66625E-001	-2.27942E-005	0.00000E+000	-3.66950E-001	1.21522E-003	7	...........	-327.66
	53	0.0108	-3.76750E-001	-2.31202E-005	0.00000E+000	-3.76950E-001	1.19022E-003	7	...........	-327.66
	54	0.011	-3.86713E-001	-2.34465E-005	0.00000E+000	-3.86950E-001	1.09022E-003	7	...........	-327.66
	55	0.0112	-3.96763E-001	-2.37761E-005	0.00000E+000	-3.96950E-001	1.01522E-003	7	...........	-327.66
	56	0.0114	-4.06788E-001	-2.40929E-005	0.00000E+000	-4.06950E-001	1.14022E-003	7	...........	-327.66
	57	0.0116	-4.16763E-001	-2.44242E-005	0.00000E+000	-4.16950E-001	1.09022E-003	7	...........	-327.66
	58	0.0118	-4.26625E-001	-2.47450E-005	0.00000E+000	-4.26950E-001	1.21522E-003	7	...........	-327.66
	59	0.012	-4.36850E-001	-2.50683E-005	0.00000E+000	-4.36950E-001	1.14022E-003	7	...........	-327.66
	60	0.0122	-4.46563E-001	-2.53878E-005	0.00000E+000	-4.46950E-001	1.21522E-003	7	...........	-327.66
	61	0.0124	-4.56738E-001	-2.57131E-005	0.00000E+000	-4.56950E-001	1.16522E-003	7	...........	-327.66
	62	0.0126	-4.66563E-001	-2.60281E-005	0.00000E+000	-4.66950E-001	1.21522E-003	7	...........	-327.66
	63	0.0128	-4.76775E-001	-2.63459E-005	0.00000E+000	-4.76950E-001	1.06522E-003	7	...........	-327.66
	64	0.013	-4.86738E-001	-2.66627E-005	0.00000E+000	-4.86950E-001	1.29022E-003	7	...........	-327.66
	65	0.0132	-4.96625E-001	-2.69788E-005	0.00000E+000	-4.96950E-001	1.19022E-003	7	...........	-327.66
	66	0.0134	-5.06663E-001	-2.72906E-005	0.00000E+000	-5.06950E-001	1.14022E-003	7	...........	-327.66
	67	0.0136	-5.16788E-001	-2.76039E-005	0.00000E+000	-5.16950E-001	1.14022E-003	7	...........	-327.66
	68	0.0138	-5.26638E-001	-2.79122E-005	0.00000E+000	-5.26950E-001	1.19022E-003	7	...........	-327.66
	69	0.014	-5.36763E-001	-2.82209E-005	0.00000E+000	-5.36950E-001	1.06522E-003	7	...........	-327.66
	70	0.0142	-5.46700E-001	-2.85245E-005	0.00000E+000	-5.46950E-001	1.11522E-003	7	...........	-327.66
	71	0.0144	-5.56700E-001	-2.88280E-005	0.00000E+000	-5.56950E-001	1.19022E-003	7	...........	-327.66
	72	0.0146	-5.66613E-001	-2.91263E-005	0.00000E+000	-5.66950E-001	1.11522E-003	7	...........	-327.66
	73	0.0148	-5.76588E-001	-2.94266E-005	0.00000E+000	-5.76950E-001	1.14022E-003	7	...........	-327.66
	74	0.015	-5.86600E-001	-2.97214E-005	0.00000E+000	-5.86950E-001	1.09022E-003	7	...........	-327.66
	75	0.0152	-5.96738E-001	-3.00107E-005	0.00000E+000	-5.96950E-001	1.09022E-003	7	...........	-327.66
	76	0.0154	-6.06700E-001	-3.02962E-005	0.00000E+000	-6.06950E-001	9.90224E-004	7	...........	-327.66
	77	0.0156	-6.16650E-001	-3.05828E-005	0.00000E+000	-6.16950E-001	1.16522E-003	7	...........	-327.66
	78	0.0158	-6.26663E-001	-3.08601E-005	0.00000E+000	-6.26950E-001	1.06522E-003	7	...........	-327.66
	79	0.016	-6.36675E-001	-3.11408E-005	0.00000E+000	-6.36950E-001	1.04022E-003	7	...........	-327.66
	80	0.0162	-6.46513E-001	-3.14121E-005	0.00000E+000	-6.46950E-001	1.06522E-003	7	...........	-327.66
	81	0.0164	-6.56638E-001	-3.16794E-005	0.00000E+000	-6.56950E-001	1.11522E-003	7	...........	-327.66
	82	0.0166	-6.66563E-001	-3.19370E-005	0.00000E+000	-6.66950E-001	1.21522E-003	7	...........	-327.66
	83	0.0168	-6.76725E-001	-3.21927E-005	0.00000E+000	-6.76950E-001	1.19022E-003	7	...........	-327.66
	84	0.017	-6.86663E-001	-3.24395E-005	0.00000E+000	-6.86950E-001	1.16522E-003	7	...........	-327.66
	85	0.0172	-6.96713E-001	-3.26888E-005	0.00000E+000	-6.96950E-001	1.06522E-003	7	...........	-327.66
	86	0.0174	-7.06575E-001	-3.29188E-005	0.00000E+000	-7.06950E-001	1.21522E-003	7	...........	-327.66
	87	0.0176	-7.16738E-001	-3.31466E-005	0.00000E+000	-7.16950E-001	1.11522E-003	7	...........	-327.66
	88	0.0178	-7.26575E-001	-3.33659E-005	0.00000E+000	-7.26950E-001	1.14022E-003	7	...........	-327.66
	89	0.018	-7.36625E-001	-3.35787E-005	0.00000E+000	-7.36950E-001	1.14022E-003	7	...........	-327.66
	90	0.0182	-7.46475E-001	-3.37822E-005	0.00000E+000	-7.46950E-001	1.19022E-003	7	...........	-327.66
	91	0.0184	-7.56600E-001	-3.39717E-005	0.00000E+000	-7.56950E-001	1.21522E-003	7	...........	-327.66
	92	0.0186	-7.66600E-001	-3.41535E-005	0.00000E+000	-7.66950E-001	1.11522E-003	7	...........	-327.66
	93	0.0188	-7.76663E-001	-3.43245E-005	0.00000E+000	-7.76950E-001	1.09022E-003	7	...........	-327.66
	94	0.019	-7.86450E-001	-3.44815E-005	0.00000E+000	-7.86950E-001	1.24022E-003	7	...........	-327.66
	95	0.0192	-7.96650E-001	-3.46241E-005	0.00000E+000	-7.96950E-001	1.01522E-003	7	...........	-327.66
	96	0.0194	-8.06488E-001	-3.47558E-005	0.00000E+000	-8.06950E-001	1.06522E-003	7	...........	-327.66
	97	0.0196	-8.16538E-001	-3.48633E-005	0.00000E+000	-8.16950E-001	1.14022E-003	7	...........	-327.66
	98	0.0198	-8.26538E-001	-3.49631E-005	0.00000E+000	-8.26950E-001	1.14022E-003	7	...........	-327.66
	99	0.02	-8.36600E-001	-3.50359E-005	0.00000E+000	-8.36950E-001	1.21522E-003	7	...........	-327.66
	100	0.0202	-8.46600E-001	-3.51001E-005	0.00000E+000	-8.46950E-001	1.16522E-003	7	...........	-327.66
	101	0.0204	-8.56650E-001	-3.51371E-005	0.00000E+000	-8.56950E-001	1.11522E-003	7	...........	-327.66
	102	0.0206	-8.66625E-001	-3.51519E-005	0.00000E+000	-8.66950E-001	1.16522E-003	7	...........	-327.66
	103	0.0208	-8.76663E-001	-3.51449E-005	0.00000E+000	-8.76950E-001	1.01522E-003	7	...........	-327.66
	104	0.021	-8.86500E-001	-3.51134E-005	0.00000E+000	-8.86950E-001	9.90224E-004	7	...........	-327.66
	105	0.0212	-8.96600E-001	-3.50646E-005	0.00000E+000	-8.96950E-001	1.01522E-003	7	...........	-327.66
	106	0.0214	-8.86638E-001	-3.29281E-005	0.00000E+000	-8.86950E-001	1.14022E-003	7	...........	-327.66
	107	0.0216	-8.76788E-001	-3.09158E-005	0.00000E+000	-8.76950E-001	1.19022E-003	7	...........	-327.66
	108	0.0218	-8.66725E-001	-2.92038E-005	0.00000E+000	-8.66950E-001	1.11522E-003	7	...........	-327.66
	109	0.022	-8.56713E-001	-2.76826E-005	0.00000E+000	-8.56950E-001	1.01522E-003	7	...........	-327.66
	110	0.0222	-8.46700E-001	-2.62962E-005	0.00000E+000	-8.46950E-001	1.06522E-003	7	...........	-327.66
	111	0.0224	-8.36650E-001	-2.50030E-005	0.00000E+000	-8.36950E-001	1.09022E-003	7	...........	-327.66
	112	0.0226	-8.26600E-001	-2.37761E-005	0.00000E+000	-8.26950E-001	1.21522E-003	7	...........	-327.66
	113	0.0228	-8.16688E-001	-2.26067E-005	0.00000E+000	-8.16950E-001	1.06522E-003	7	...........	-327.66
	114	0.023	-8.06650E-001	-2.14823E-005	0.00000E+000	-8.06950E-001	1.26522E-003	7	...........	-327.66
	115	0.0232	-7.96650E-001	-2.03846E-005	0.00000E+000	-7.96950E-001	1.09022E-003	7	...........	-327.66
	116	0.0234	-7.86700E-001	-1.93310E-005	0.00000E+000	-7.86950E-001	1.24022E-003	7	...........	-327.66
	117	0.0236	-7.76750E-001	-1.82983E-005	0.00000E+000	-7.76950E-001	1.06522E-003	7	...........	-327.66
	118	0.0238	-7.66763E-001	-1.72882E-005	0.00000E+000	-7.66950E-001	1.19022E-003	7	...........	-327.66
	119	0.024	-7.56825E-001	-1.62933E-005	0.00000E+000	-7.56950E-001	1.04022E-003	7	...........	-327.66
	120	0.0242	-7.46750E-001	-1.53199E-005	0.00000E+000	-7.46950E-001	1.01522E-003	7	...........	-327.66
	121	0.0244	-7.36775E-001	-1.43608E-005	0.00000E+000	-7.36950E-001	1.19022E-003	7	...........	-327.66
	122	0.0246	-7.26650E-001	-1.34167E-005	0.00000E+000	-7.26950E-001	1.19022E-003	7	...........	-327.66
	123	0.0248	-7.16813E-001	-1.24895E-005	0.00000E+000	-7.16950E-001	1.16522E-003	7	...........	-327.66
	124	0.025	-7.06638E-001	-1.15702E-005	0.00000E+000	-7.06950E-001	9.90224E-004	7	...........	-327.66
	125	0.0252	-6.96713E-001	-1.06678E-005	0.00000E+000	-6.96950E-001	1.14022E-003	7	...........	-327.66
	126	0.0254	-6.86813E-001	-9.77793E-006	0.00000E+000	-6.86950E-001	1.09022E-003	7	...........	-327.66
	127	0.0256	-6.76813E-001	-8.89931E-006	0.00000E+000	-6.76950E-001	1.01522E-003	7	...........	-327.66
	128	0.0258	-6.66700E-001	-8.03369E-006	0.00000E+000	-6.66950E-001	1.09022E-003	7	...........	-327.66
	129	0.026	-6.56775E-001	-7.17757E-006	0.00000E+000	-6.56950E-001	1.11522E-003	7	...........	-327.66
	130	0.0262	-6.46675E-001	-6.33996E-006	0.00000E+000	-6.46950E-001	1.09022E-003	7	...........	-327.66
	131	0.0264	-6.36825E-001	-5.50460E-006	0.00000E+000	-6.36950E-001	1.11522E-003	7	...........	-327.66
	132	0.0266	-6.26775E-001	-4.68873E-006	0.00000E+000	-6.26950E-001	1.19022E-003	7	...........	-327.66
	133	0.0268	-6.16775E-001	-3.88288E-006	0.00000E+000	-6.16950E-001	1.11522E-003	7	...........	-327.66
	134	0.027	-6.06763E-001	-3.08552E-006	0.00000E+000	-6.06950E-001	1.11522E-003	7	...........	-327.66
	135	0.0272	-5.96838E-001	-2.30991E-006	0.00000E+000	-5.96950E-001	1.11522E-003	7	...........	-327.66
	136	0.0274	-5.86788E-001	-1.53230E-006	0.00000E+000	-5.86950E-001	1.09022E-003	7	...........	-327.66
	137	0.0276	-5.76700E-001	-7.75702E-007	0.00000E+000	-5.76950E-001	1.29022E-003	7	...........	-327.66
	138	0.0278	-5.66813E-001	-2.50995E-008	0.00000E+000	-5.66950E-001	1.19022E-003	7	...........	-327.66
	139	0.028	-5.56813E-001	7.10001E-007	0.00000E+000	-5.56950E-001	9.90224E-004	7	...........	-327.66
	140	0.0282	-5.46838E-001	1.43760E-006	0.00000E+000	-5.46950E-001	1.21522E-003	7	...........	-327.66
	141	0.0284	-5.36800E-001	2.15295E-006	0.00000E+000	-5.36950E-001	1.19022E-003	7	...........	-327.66
	142	0.0286	-5.26825E-001	2.85629E-006	0.00000E+000	-5.26950E-001	1.19022E-003	7	...........	-327.66
	143	0.0288	-5.16888E-001	3.54989E-006	0.00000E+000	-5.16950E-001	1.14022E-003	7	...........	-327.66
	144	0.029	-5.06863E-001	4.23923E-006	0.00000E+000	-5.06950E-001	1.21522E-003	7	...........	-327.66
	145	0.0292	-4.96863E-001	4.91282E-006	0.00000E+000	-4.96950E-001	1.29022E-003	7	...........	-327.66
	146	0.0294	-4.86863E-001	5.57541E-006	0.00000E+000	-4.86950E-001	1.19022E-003	7	...........	-327.66
	147	0.0296	-4.76925E-001	6.22600E-006	0.00000E+000	-4.76950E-001	1.09022E-003	7	...........	-327.66
	148	0.0298	-4.66775E-001	6.87459E-006	0.00000E+000	-4.66950E-001	1.16522E-003	7	...........	-327.66
	149	0.03	-4.56850E-001	7.51218E-006	0.00000E+000	-4.56950E-001	1.11522E-003	7	...........	-327.66
	150	0.0302	-4.46738E-001	8.13451E-006	0.00000E+000	-4.46950E-001	1.24022E-003	7	...........	-327.66
	151	0.0304	-4.36838E-001	8.75360E-006	0.00000E+000	-4.36950E-001	1.09022E-003	7	...........	-327.66
	152	0.0306	-4.26863E-001	9.36118E-006	0.00000E+000	-4.26950E-001	1.06522E-003	7	...........	-327.66
	153	0.0308	-4.16863E-001	9.95601E-006	0.00000E+000	-4.16950E-001	1.24022E-003	7	...........	-327.66
	154	0.031	-4.06888E-001	1.05441E-005	0.00000E+000	-4.06950E-001	1.14022E-003	7	...........	-327.66
	155	0.0312	-3.96875E-001	1.11244E-005	0.00000E+000	-3.96950E-001	1.24022E-003	7	...........	-327.66
	156	0.0314	-3.86813E-001	1.16960E-005	0.00000E+000	-3.86950E-001	1.24022E-003	7	...........	-327.66
	157	0.0316	-3.76900E-001	1.22551E-005	0.00000E+000	-3.76950E-001	1.11522E-003	7	...........	-327.66
	158	0.0318	-3.66813E-001	1.28094E-005	0.00000E+000	-3.66950E-001	1.14022E-003	7	...........	-327.66
	159	0.032	-3.56925E-001	1.33495E-005	0.00000E+000	-3.56950E-001	1.01522E-003	7	...........	-327.66
	160	0.0322	-3.46813E-001	1.38843E-005	0.00000E+000	-3.46950E-001	1.19022E-003	7	...........	-327.66
	161	0.0324	-3.36850E-001	1.44046E-005	0.00000E+000	-3.36950E-001	1.19022E-003	7	...........	-327.66
	162	0.0326	-3.26913E-001	1.49164E-005	0.00000E+000	-3.26950E-001	1.09022E-003	7	...........	-327.66
	163	0.0328	-3.16900E-001	1.54240E-005	0.00000E+000	-3.16950E-001	1.01522E-003	7	...........	-327.66
	164	0.033	-3.06813E-001	1.59151E-005	0.00000E+000	-3.06950E-001	1.09022E-003	7	...........	-327.66
	165	0.0332	-2.96863E-001	1.64016E-005	0.00000E+000	-2.96950E-001	1.01522E-003	7	...........	-327.66
	166	0.0334	-2.86988E-001	1.68747E-005	0.00000E+000	-2.86950E-001	1.04022E-003	7	...........	-327.66
	167	0.0336	-2.76913E-001	1.73393E-005	0.00000E+000	-2.76950E-001	1.01522E-003	7	...........	-327.66
	168	0.0338	-2.67013E-001	1.77933E-005	0.00000E+000	-2.66950E-001	1.19022E-003	7	...........	-327.66
	169	0.034	-2.56863E-001	1.82351E-005	0.00000E+000	-2.56950E-001	1.01522E-003	7	...........	-327.66
	170	0.0342	-2.46925E-001	1.86727E-005	0.00000E+000	-2.46950E-001	1.16522E-003	7	...........	-327.66
	171	0.0344	-2.36900E-001	1.90930E-005	0.00000E+000	-2.36950E-001	1.11522E-003	7	...........	-327.66
	172	0.0346	-2.26950E-001	1.95058E-005	0.00000E+000	-2.26950E-001	1.16522E-003	7	...........	-327.66
	173	0.0348	-2.16813E-001	1.99059E-005	0.00000E+000	-2.16950E-001	1.04022E-003	7	...........	-327.66
	174	0.035	-2.06875E-001	2.02994E-005	0.00000E+000	-2.06950E-001	9.65224E-004	7	...........	-327.66
	175	0.0352	-1.96988E-001	2.06832E-005	0.00000E+000	-1.96950E-001	1.01522E-003	7	...........	-327.66
	176	0.0354	-1.86988E-001	2.10568E-005	0.00000E+000	-1.86950E-001	1.11522E-003	7	...........	-327.66
	177	0.0356	-1.76925E-001	2.14201E-005	0.00000E+000	-1.76950E-001	1.19022E-003	7	...........	-327.66
	178	0.0358	-1.66900E-001	2.17686E-005	0.00000E+000	-1.66950E-001	1.14022E-003	7	...........	-327.66
	179	0.036	-1.56875E-001	2.21124E-005	0.00000E+000	-1.56950E-001	1.21522E-003	7	...........	-327.66
	180	0.0362	-1.46975E-001	2.24422E-005	0.00000E+000	-1.46950E-001	1.16522E-003	7	...........	-327.66
	181	0.0364	-1.36863E-001	2.27690E-005	0.00000E+000	-1.36950E-001	1.16522E-003	7	...........	-327.66
	182	0.0366	-1.26963E-001	2.30813E-005	0.00000E+000	-1.26950E-001	1.21522E-003	7	...........	-327.66
	183	0.0368	-1.16938E-001	2.33831E-005	0.00000E+000	-1.16950E-001	1.11522E-003	7	...........	-327.66
	184	0.037	-1.06925E-001	2.36789E-005	0.00000E+000	-1.06950E-001	1.11522E-003	7	...........	-327.66
	185	0.0372	-9.68377E-002	2.39639E-005	0.00000E+000	-9.69500E-002	1.16522E-003	7	...........	-327.66
	186	0.0374	-8.67752E-002	2.42437E-005	0.00000E+000	-8.69500E-002	1.14022E-003	7	...........	-327.66
	187	0.0376	-7.69127E-002	2.45160E-005	0.00000E+000	-7.69500E-002	1.19022E-003	7	...........	-327.66
	188	0.0378	-6.69502E-002	2.47778E-005	0.00000E+000	-6.69500E-002	1.29022E-003	7	...........	-327.66
	189	0.038	-5.68627E-002	2.50273E-005	0.00000E+000	-5.69500E-002	1.14022E-003	7	...........	-327.66
	190	0.0382	-4.70252E-002	2.52696E-005	0.00000E+000	-4.69500E-002	1.11522E-003	7	...........	-327.66
	191	0.0384	-3.68627E-002	2.55116E-005	0.00000E+000	-3.69500E-002	9.90224E-004	7	...........	-327.66
	192	0.0386	-2.69127E-002	2.57397E-005	0.00000E+000	-2.69500E-002	1.14022E-003	7	...........	-327.66
	193	0.0388	-1.69127E-002	2.59607E-005	0.00000E+000	-1.69500E-002	1.16522E-003	7	...........	-327.66
	194	0.039	-7.01269E-003	2.61742E-005	0.00000E+000	-6.95001E-003	1.01522E-003	7	...........	-327.66
	195	0.0392	3.13731E-003	2.63847E-005	0.00000E+000	3.04998E-003	1.19022E-003	7	...........	-327.66
	196	0.0394	1.30873E-002	2.65863E-005	0.00000E+000	1.30500E-002	1.24022E-003	7	...........	-327.66
	197	0.0396	2.31123E-002	2.67781E-005	0.00000E+000	2.30500E-002	1.16522E-003	7	...........	-327.66
	198	0.0398	3.31123E-002	2.69618E-005	0.00000E+000	3.30500E-002	1.29022E-003	7	...........	-327.66
	199	0.04	4.30373E-002	2.71384E-005	0.00000E+000	4.30500E-002	1.24022E-003	7	...........	-327.66
	200	0.0402	5.30123E-002	2.73101E-005	0.00000E+000	5.30500E-002	1.11522E-003	7	...........	-327.66
	201	0.0404	6.30748E-002	2.74726E-005	0.00000E+000	6.30500E-002	1.21522E-003	7	...........	-327.66
	202	0.0406	7.31123E-002	2.76272E-005	0.00000E+000	7.30500E-002	1.14022E-003	7	...........	-327.66
	203	0.0408	8.30373E-002	2.77774E-005	0.00000E+000	8.30500E-002	1.11522E-003	7	...........	-327.66
	204	0.041	9.30998E-002	2.79155E-005	0.00000E+000	9.30500E-002	1.11522E-003	7	...........	-327.66
	205	0.0412	1.03125E-001	2.80457E-005	0.00000E+000	1.03050E-001	1.11522E-003	7	...........	-327.66
	206	0.0414	1.13050E-001	2.81700E-005	0.00000E+000	1.13050E-001	1.19022E-003	7	...........	-327.66
	207	0.0416	1.23112E-001	2.82820E-005	0.00000E+000	1.23050E-001	1.04022E-003	7	...........	-327.66
	208	0.0418	1.33037E-001	2.83875E-005	0.00000E+000	1.33050E-001	1.01522E-003	7	...........	-327.66
	209	0.042	1.43150E-001	2.84848E-005	0.00000E+000	1.43050E-001	1.09022E-003	7	...........	-327.66
	210	0.0422	1.53087E-001	2.85738E-005	0.00000E+000	1.53050E-001	1.09022E-003	7	...........	-327.66
	211	0.0424	1.63100E-001	2.86521E-005	0.00000E+000	1.63050E-001	1.14022E-003	7	...........	-327.66
	212	0.0426	1.73125E-001	2.87231E-005	0.00000E+000	1.73050E-001	1.09022E-003	7	...........	-327.66
	213	0.0428	1.83062E-001	2.87833E-005	0.00000E+000	1.83050E-001	1.24022E-003	7	...........	-327.66
	214	0.043	1.93087E-001	2.88346E-005	0.00000E+000	1.93050E-001	1.01522E-003	7	...........	-327.66
	215	0.0432	2.03087E-001	2.88801E-005	0.00000E+000	2.03050E-001	9.90224E-004	7	...........	-327.66
	216	0.0434	2.13037E-001	2.89111E-005	0.00000E+000	2.13050E-001	1.24022E-003	7	...........	-327.66
	217	0.0436	2.23137E-001	2.89343E-005	0.00000E+000	2.23050E-001	1.29022E-003	7	...........	-327.66
	218	0.0438	2.33037E-001	2.89599E-005	0.00000E+000	2.33050E-001	1.16522E-003	7	...........	-327.66
	219	0.044	2.43112E-001	2.89711E-005	0.00000E+000	2.43050E-001	1.24022E-003	7	...........	-327.66
	220	0.0442	2.53037E-001	2.89744E-005	0.00000E+000	2.53050E-001	1.16522E-003	7	...........	-327.66
	221	0.0444	2.63100E-001	2.89766E-005	0.00000E+000	2.63050E-001	1.29022E-003	7	...........	-327.66
	222	0.0446	2.73037E-001	2.89739E-005	0.00000E+000	2.73050E-001	1.14022E-003	7	...........	-327.66
	223	0.0448	2.83087E-001	2.89604E-005	0.00000E+000	2.83050E-001	1.26522E-003	7	...........	-327.66
	224	0.045	2.92962E-001	2.89486E-005	0.00000E+000	2.93050E-001	1.11522E-003	7	...........	-327.66
	225	0.0452	3.03037E-001	2.89331E-005	0.00000E+000	3.03050E-001	1.21522E-003	7	...........	-327.66
	226	0.0454	3.12987E-001	2.89146E-005	0.00000E+000	3.13050E-001	1.11522E-003	7	...........	-327.66
	227	0.0456	3.23137E-001	2.88891E-005	0.00000E+000	3.23050E-001	1.09022E-003	7	...........	-327.66
	228	0.0458	3.33050E-001	2.88603E-005	0.00000E+000	3.33050E-001	1.19022E-003	7	...........	-327.66
	229	0.046	3.43037E-001	2.88336E-005	0.00000E+000	3.43050E-001	1.11522E-003	7	...........	-327.66
	230	0.0462	3.53062E-001	2.88028E-005	0.00000E+000	3.53050E-001	1.19022E-003	7	...........	-327.66
	231	0.0464	3.62987E-001	2.87663E-005	0.00000E+000	3.63050E-001	1.06522E-003	7	...........	-327.66
	232	0.0466	3.73100E-001	2.87348E-005	0.00000E+000	3.73050E-001	1.19022E-003	7	...........	-327.66
	233	0.0468	3.83025E-001	2.86981E-005	0.00000E+000	3.83050E-001	1.04022E-003	7	...........	-327.66
	234	0.047	3.93012E-001	2.86591E-005	0.00000E+000	3.93050E-001	1.21522E-003	7	...........	-327.66
	235	0.0472	4.03087E-001	2.86223E-005	0.00000E+000	4.03050E-001	1.01522E-003	7	...........	-327.66
	236	0.0474	4.13062E-001	2.85845E-005	0.00000E+000	4.13050E-001	1.24022E-003	7	...........	-327.66
	237	0.0476	4.23087E-001	2.85425E-005	0.00000E+000	4.23050E-001	1.11522E-003	7	...........	-327.66
	238	0.0478	4.33037E-001	2.85025E-005	0.00000E+000	4.33050E-001	1.11522E-003	7	...........	-327.66
	239	0.048	4.43037E-001	2.84643E-005	0.00000E+000	4.43050E-001	1.16522E-003	7	...........	-327.66
	240	0.0482	4.52987E-001	2.84233E-005	0.00000E+000	4.53050E-001	1.06522E-003	7	...........	-327.66
	241	0.0484	4.63062E-001	2.83893E-005	0.00000E+000	4.63050E-001	1.09022E-003	7	...........	-327.66
	242	0.0486	4.73000E-001	2.83523E-005	0.00000E+000	4.73050E-001	1.11522E-003	7	...........	-327.66
	243	0.0488	4.82962E-001	2.83205E-005	0.00000E+000	4.83050E-001	1.11522E-003	7	...........	-327.66
	244	0.049	4.92987E-001	2.82860E-005	0.00000E+000	4.93050E-001	1.04022E-003	7	...........	-327.66
	245	0.0492	5.03037E-001	2.82495E-005	0.00000E+000	5.03050E-001	1.04022E-003	7	...........	-327.66
	246	0.0494	5.12925E-001	2.82225E-005	0.00000E+000	5.13050E-001	1.19022E-003	7	...........	-327.66
	247	0.0496	5.23075E-001	2.81977E-005	0.00000E+000	5.23050E-001	1.04022E-003	7	...........	-327.66
	248	0.0498	5.32987E-001	2.81745E-005	0.00000E+000	5.33050E-001	1.09022E-003	7	...........	-327.66
	249	0.05	5.43062E-001	2.81515E-005	0.00000E+000	5.43050E-001	1.24022E-003	7	...........	-327.66
	250	0.0502	5.52975E-001	2.81337E-005	0.00000E+000	5.53050E-001	1.04022E-003	7	...........	-327.66
	251	0.0504	5.63112E-001	2.81200E-005	0.00000E+000	5.63050E-001	1.09022E-003	7	...........	-327.66
	252	0.0506	5.73025E-001	2.81077E-005	0.00000E+000	5.73050E-001	1.11522E-003	7	...........	-327.66
	253	0.0508	5.83112E-001	2.80955E-005	0.00000E+000	5.83050E-001	1.09022E-003	7	...........	-327.66
	254	0.051	5.93037E-001	2.80930E-005	0.00000E+000	5.93050E-001	1.09022E-003	7	...........	-327.66
	255	0.0512	6.03037E-001	2.80880E-005	0.00000E+000	6.03050E-001	8.90224E-004	7	...........	-327.66
CURVE2	TABLE
	Pt	T	Vf	Im	Vu	Sig	Ach	IERange	Over	Temp
	#	s	V vs. Ref.	A	V	V	V	#	bits	deg C
	256	0.0514	5.89962E-001	2.52511E-005	0.00000E+000	5.90000E-001	1.14022E-003	7	...........	-327.66
	257	0.0516	5.79937E-001	2.30003E-005	0.00000E+000	5.80000E-001	1.21522E-003	7	...........	-327.66
	258	0.0518	5.69987E-001	2.11825E-005	0.00000E+000	5.70000E-001	1.11522E-003	7	...........	-327.66
	259	0.052	5.59937E-001	1.96021E-005	0.00000E+000	5.60000E-001	1.06522E-003	7	...........	-327.66
	260	0.0522	5.50025E-001	1.81924E-005	0.00000E+000	5.50000E-001	1.21522E-003	7	...........	-327.66
	261	0.0524	5.39937E-001	1.69132E-005	0.00000E+000	5.40000E-001	1.19022E-003	7	...........	-327.66
	262	0.0526	5.30025E-001	1.57368E-005	0.00000E+000	5.30000E-001	1.04022E-003	7	...........	-327.66
	263	0.0528	5.19937E-001	1.46429E-005	0.00000E+000	5.20000E-001	1.06522E-003	7	...........	-327.66
	264	0.053	5.09937E-001	1.36168E-005	0.00000E+000	5.10000E-001	1.14022E-003	7	...........	-327.66
	265	0.0532	5.00062E-001	1.26504E-005	0.00000E+000	5.00000E-001	1.04022E-003	7	...........	-327.66
	266	0.0534	4.89975E-001	1.17318E-005	0.00000E+000	4.90000E-001	1.16522E-003	7	...........	-327.66
	267	0.0536	4.79987E-001	1.08524E-005	0.00000E+000	4.80000E-001	1.24022E-003	7	...........	-327.66
	268	0.0538	4.69987E-001	1.00165E-005	0.00000E+000	4.70000E-001	1.06522E-003	7	...........	-327.66
	269	0.054	4.59962E-001	9.21716E-006	0.00000E+000	4.60000E-001	1.04022E-003	7	...........	-327.66
	270	0.0542	4.49812E-001	8.44430E-006	0.00000E+000	4.50000E-001	1.21522E-003	7	...........	-327.66
	271	0.0544	4.40012E-001	7.69895E-006	0.00000E+000	4.40000E-001	1.19022E-003	7	...........	-327.66
	272	0.0546	4.29987E-001	6.97936E-006	0.00000E+000	4.30000E-001	1.09022E-003	7	...........	-327.66
	273	0.0548	4.20062E-001	6.28101E-006	0.00000E+000	4.20000E-001	1.06522E-003	7	...........	-327.66
	274	0.055	4.10087E-001	5.60842E-006	0.00000E+000	4.10000E-001	1.14022E-003	7	...........	-327.66
	275	0.0552	3.99987E-001	4.95333E-006	0.00000E+000	4.00000E-001	1.29022E-003	7	...........	-327.66
	276	0.0554	3.90037E-001	4.31449E-006	0.00000E+000	3.90000E-001	1.14022E-003	7	...........	-327.66
	277	0.0556	3.80012E-001	3.69441E-006	0.00000E+000	3.80000E-001	1.16522E-003	7	...........	-327.66
	278	0.0558	3.70162E-001	3.09058E-006	0.00000E+000	3.70000E-001	1.29022E-003	7	...........	-327.66
	279	0.056	3.60062E-001	2.50400E-006	0.00000E+000	3.60000E-001	1.21522E-003	7	...........	-327.66
	280	0.0562	3.50025E-001	1.92467E-006	0.00000E+000	3.50000E-001	1.09022E-003	7	...........	-327.66
	281	0.0564	3.40000E-001	1.36234E-006	0.00000E+000	3.40000E-001	1.24022E-003	7	...........	-327.66
	282	0.0566	3.30137E-001	8.14765E-007	0.00000E+000	3.30000E-001	1.06522E-003	7	...........	-327.66
	283	0.0568	3.20062E-001	2.76942E-007	0.00000E+000	3.20000E-001	1.06522E-003	7	...........	-327.66
	284	0.057	3.10137E-001	-2.55381E-007	0.00000E+000	3.10000E-001	1.01522E-003	7	...........	-327.66
	285	0.0572	2.99987E-001	-7.72201E-007	0.00000E+000	3.00000E-001	1.11522E-003	7	...........	-327.66
	286	0.0574	2.90112E-001	-1.27677E-006	0.00000E+000	2.90000E-001	1.09022E-003	7	...........	-327.66
	287	0.0576	2.80075E-001	-1.77484E-006	0.00000E+000	2.80000E-001	1.04022E-003	7	...........	-327.66
	288	0.0578	2.70225E-001	-2.26515E-006	0.00000E+000	2.70000E-001	9.90224E-004	7	...........	-327.66
	289	0.058	2.60050E-001	-2.74597E-006	0.00000E+000	2.60000E-001	1.11522E-003	7	...........	-327.66
	290	0.0582	2.50075E-001	-3.21653E-006	0.00000E+000	2.50000E-001	1.16522E-003	7	...........	-327.66
	291	0.0584	2.40087E-001	-3.67960E-006	0.00000E+000	2.40000E-001	1.14022E-003	7	...........	-327.66
	292	0.0586	2.30037E-001	-4.14016E-006	0.00000E+000	2.30000E-001	1.11522E-003	7	...........	-327.66
	293	0.0588	2.20062E-001	-4.59122E-006	0.00000E+000	2.20000E-001	1.11522E-003	7	...........	-327.66
	294	0.059	2.10100E-001	-5.03603E-006	0.00000E+000	2.10000E-001	1.19022E-003	7	...........	-327.66
	295	0.0592	2.00037E-001	-5.46959E-006	0.00000E+000	2.00000E-001	1.09022E-003	7	...........	-327.66
	296	0.0594	1.90225E-001	-5.89965E-006	0.00000E+000	1.90000E-001	1.21522E-003	7	...........	-327.66
	297	0.0596	1.80150E-001	-6.32821E-006	0.00000E+000	1.80000E-001	1.19022E-003	7	...........	-327.66
	298	0.0598	1.70300E-001	-6.74952E-006	0.00000E+000	1.70000E-001	1.14022E-003	7	...........	-327.66
	299	0.06	1.60125E-001	-7.16207E-006	0.00000E+000	1.60000E-001	1.14022E-003	7	...........	-327.66
	300	0.0602	1.50262E-001	-7.57363E-006	0.00000E+000	1.50000E-001	1.09022E-003	7	...........	-327.66
	301	0.0604	1.40200E-001	-7.97518E-006	0.00000E+000	1.40000E-001	1.21522E-003	7	...........	-327.66
	302	0.0606	1.30175E-001	-8.38274E-006	0.00000E+000	1.30000E-001	1.29022E-003	7	...........	-327.66
	303	0.0608	1.20125E-001	-8.77804E-006	0.00000E+000	1.20000E-001	1.11522E-003	7	...........	-327.66
	304	0.061	1.10187E-001	-9.17085E-006	0.00000E+000	1.10000E-001	9.90224E-004	7	...........	-327.66
	305	0.0612	1.00087E-001	-9.55615E-006	0.00000E+000	1.00000E-001	1.11522E-003	7	...........	-327.66
	306	0.0614	9.02123E-002	-9.94020E-006	0.00000E+000	9.00000E-002	1.04022E-003	7	...........	-327.66
	307	0.0616	8.00623E-002	-1.03203E-005	0.00000E+000	8.00000E-002	9.90224E-004	7	...........	-327.66
	308	0.0618	7.01873E-002	-1.06953E-005	0.00000E+000	7.00000E-002	1.09022E-003	7	...........	-327.66
	309	0.062	6.01623E-002	-1.10669E-005	0.00000E+000	6.00000E-002	9.90224E-004	7	...........	-327.66
	310	0.0622	5.01123E-002	-1.14349E-005	0.00000E+000	5.00000E-002	1.21522E-003	7	...........	-327.66
	311	0.0624	4.00498E-002	-1.18040E-005	0.00000E+000	4.00000E-002	1.01522E-003	7	...........	-327.66
	312	0.0626	3.01873E-002	-1.21643E-005	0.00000E+000	3.00000E-002	1.16522E-003	7	...........	-327.66
	313	0.0628	2.02373E-002	-1.25291E-005	0.00000E+000	2.00000E-002	1.11522E-003	7	...........	-327.66
	314	0.063	1.02373E-002	-1.28854E-005	0.00000E+000	9.99999E-003	1.11522E-003	7	...........	-327.66
	315	0.0632	1.24813E-004	-1.32389E-005	0.00000E+000	-1.49012E-008	1.06522E-003	7	...........	-327.66
	316	0.0634	-9.66269E-003	-1.35929E-005	0.00000E+000	-1.00000E-002	1.01522E-003	7	...........	-327.66
	317	0.0636	-1.99252E-002	-1.39407E-005	0.00000E+000	-2.00000E-002	1.06522E-003	7	...........	-327.66
	318	0.0638	-2.97127E-002	-1.42850E-005	0.00000E+000	-3.00000E-002	1.06522E-003	7	...........	-327.66
	319	0.064	-3.98252E-002	-1.46278E-005	0.00000E+000	-4.00000E-002	9.90224E-004	7	...........	-327.66
	320	0.0642	-4.98627E-002	-1.49686E-005	0.00000E+000	-5.00000E-002	1.06522E-003	7	...........	-327.66
	321	0.0644	-5.98627E-002	-1.53064E-005	0.00000E+000	-6.00000E-002	1.24022E-003	7	...........	-327.66
	322	0.0646	-6.97627E-002	-1.56440E-005	0.00000E+000	-7.00000E-002	1.04022E-003	7	...........	-327.66
	323	0.0648	-7.99377E-002	-1.59760E-005	0.00000E+000	-8.00000E-002	1.01522E-003	7	...........	-327.66
	324	0.065	-8.97877E-002	-1.63081E-005	0.00000E+000	-9.00000E-002	1.11522E-003	7	...........	-327.66
	325	0.0652	-9.98627E-002	-1.66384E-005	0.00000E+000	-1.00000E-001	1.06522E-003	7	...........	-327.66
	326	0.0654	-1.09813E-001	-1.69634E-005	0.00000E+000	-1.10000E-001	1.04022E-003	7	...........	-327.66
	327	0.0656	-1.19913E-001	-1.72902E-005	0.00000E+000	-1.20000E-001	1.06522E-003	7	...........	-327.66
	328	0.0658	-1.29875E-001	-1.76125E-005	0.00000E+000	-1.30000E-001	1.06522E-003	7	...........	-327.66
	329	0.066	-1.39863E-001	-1.79318E-005	0.00000E+000	-1.40000E-001	1.16522E-003	7	...........	-327.66
	330	0.0662	-1.49825E-001	-1.82526E-005	0.00000E+000	-1.50000E-001	9.65224E-004	7	...........	-327.66
	331	0.0664	-1.59838E-001	-1.85724E-005	0.00000E+000	-1.60000E-001	1.04022E-003	7	...........	-327.66
	332	0.0666	-1.69838E-001	-1.88899E-005	0.00000E+000	-1.70000E-001	1.01522E-003	7	...........	-327.66
	333	0.0668	-1.79888E-001	-1.92055E-005	0.00000E+000	-1.80000E-001	1.06522E-003	7	...........	-327.66
	334	0.067	-1.89700E-001	-1.95190E-005	0.00000E+000	-1.90000E-001	1.09022E-003	7	...........	-327.66
	335	0.0672	-1.99938E-001	-1.98366E-005	0.00000E+000	-2.00000E-001	1.01522E-003	7	...........	-327.66
	336	0.0674	-2.09688E-001	-2.01481E-005	0.00000E+000	-2.10000E-001	1.14022E-003	7	...........	-327.66
	337	0.0676	-2.19763E-001	-2.04634E-005	0.00000E+000	-2.20000E-001	1.06522E-003	7	...........	-327.66
	338	0.0678	-2.29813E-001	-2.07777E-005	0.00000E+000	-2.30000E-001	9.90224E-004	7	...........	-327.66
	339	0.068	-2.39825E-001	-2.10865E-005	0.00000E+000	-2.40000E-001	1.14022E-003	7	...........	-327.66
	340	0.0682	-2.49850E-001	-2.13993E-005	0.00000E+000	-2.50000E-001	1.14022E-003	7	...........	-327.66
	341	0.0684	-2.59713E-001	-2.17078E-005	0.00000E+000	-2.60000E-001	1.19022E-003	7	...........	-327.66
	342	0.0686	-2.69688E-001	-2.20168E-005	0.00000E+000	-2.70000E-001	9.90224E-004	7	...........	-327.66
	343	0.0688	-2.79813E-001	-2.23274E-005	0.00000E+000	-2.80000E-001	1.06522E-003	7	...........	-327.66
	344	0.069	-2.89838E-001	-2.26362E-005	0.00000E+000	-2.90000E-001	1.09022E-003	7	...........	-327.66
	345	0.0692	-2.99800E-001	-2.29405E-005	0.00000E+000	-3.00000E-001	1.19022E-003	7	...........	-327.66
	346	0.0694	-3.09675E-001	-2.32488E-005	0.00000E+000	-3.10000E-001	1.29022E-003	7	...........	-327.66
	347	0.0696	-3.19900E-001	-2.35538E-005	0.00000E+000	-3.20000E-001	1.16522E-003	7	...........	-327.66
	348	0.0698	-3.29738E-001	-2.38581E-005	0.00000E+000	-3.30000E-001	1.04022E-003	7	...........	-327.66
	349	0.07	-3.39788E-001	-2.41614E-005	0.00000E+000	-3.40000E-001	1.14022E-003	7	...........	-327.66
	350	0.0702	-3.49750E-001	-2.44632E-005	0.00000E+000	-3.50000E-001	1.11522E-003	7	...........	-327.66
	351	0.0704	-3.59825E-001	-2.47685E-005	0.00000E+000	-3.60000E-001	9.90224E-004	7	...........	-327.66
	352	0.0706	-3.69650E-001	-2.50665E-005	0.00000E+000	-3.70000E-001	1.14022E-003	7	...........	-327.66
	353	0.0708	-3.79813E-001	-2.53693E-005	0.00000E+000	-3.80000E-001	1.24022E-003	7	...........	-327.66
	354	0.071	-3.89688E-001	-2.56653E-005	0.00000E+000	-3.90000E-001	1.01522E-003	7	...........	-327.66
	355	0.0712	-3.99738E-001	-2.59591E-005	0.00000E+000	-4.00000E-001	1.09022E-003	7	...........	-327.66
	356	0.0714	-4.09813E-001	-2.62597E-005	0.00000E+000	-4.10000E-001	1.06522E-003	7	...........	-327.66
	357	0.0716	-4.19650E-001	-2.65547E-005	0.00000E+000	-4.20000E-001	1.16522E-003	7	...........	-327.66
	358	0.0718	-4.29663E-001	-2.68445E-005	0.00000E+000	-4.30000E-001	9.90224E-004	7	...........	-327.66
	359	0.072	-4.39650E-001	-2.71355E-005	0.00000E+000	-4.40000E-001	1.19022E-003	7	...........	-327.66
	360	0.0722	-4.49713E-001	-2.74243E-005	0.00000E+000	-4.50000E-001	1.21522E-003	7	...........	-327.66
	361	0.0724	-4.59725E-001	-2.77094E-005	0.00000E+000	-4.60000E-001	1.24022E-003	7	...........	-327.66
	362	0.0726	-4.69650E-001	-2.79969E-005	0.00000E+000	-4.70000E-001	1.21522E-003	7	...........	-327.66
	363	0.0728	-4.79775E-001	-2.82787E-005	0.00000E+000	-4.80000E-001	9.90224E-004	7	...........	-327.66
	364	0.073	-4.89763E-001	-2.85570E-005	0.00000E+000	-4.90000E-001	1.09022E-003	7	...........	-327.66
	365	0.0732	-4.99713E-001	-2.88403E-005	0.00000E+000	-5.00000E-001	1.24022E-003	7	...........	-327.66
	366	0.0734	-5.09675E-001	-2.91151E-005	0.00000E+000	-5.10000E-001	1.06522E-003	7	...........	-327.66
	367	0.0736	-5.19663E-001	-2.93899E-005	0.00000E+000	-5.20000E-001	1.16522E-003	7	...........	-327.66
	368	0.0738	-5.29713E-001	-2.96554E-005	0.00000E+000	-5.30000E-001	9.65224E-004	7	...........	-327.66
	369	0.074	-5.39713E-001	-2.99242E-005	0.00000E+000	-5.40000E-001	1.16522E-003	7	...........	-327.66
	370	0.0742	-5.49713E-001	-3.01875E-005	0.00000E+000	-5.50000E-001	9.90224E-004	7	...........	-327.66
	371	0.0744	-5.59700E-001	-3.04450E-005	0.00000E+000	-5.60000E-001	1.19022E-003	7	...........	-327.66
	372	0.0746	-5.69688E-001	-3.07043E-005	0.00000E+000	-5.70000E-001	1.11522E-003	7	...........	-327.66
	373	0.0748	-5.79750E-001	-3.09593E-005	0.00000E+000	-5.80000E-001	1.06522E-003	7	...........	-327.66
	374	0.075	-5.89713E-001	-3.12119E-005	0.00000E+000	-5.90000E-001	1.19022E-003	7	...........	-327.66
	375	0.0752	-5.99700E-001	-3.14541E-005	0.00000E+000	-6.00000E-001	9.65224E-004	7	...........	-327.66
	376	0.0754	-6.09713E-001	-3.17009E-005	0.00000E+000	-6.10000E-001	1.14022E-003	7	...........	-327.66
	377	0.0756	-6.19663E-001	-3.19377E-005	0.00000E+000	-6.20000E-001	1.26522E-003	7	...........	-327.66
	378	0.0758	-6.29613E-001	-3.21697E-005	0.00000E+000	-6.30000E-001	1.16522E-003	7	...........	-327.66
	379	0.076	-6.39663E-001	-3.23975E-005	0.00000E+000	-6.40000E-001	1.11522E-003	7	...........	-327.66
	380	0.0762	-6.49738E-001	-3.26205E-005	0.00000E+000	-6.50000E-001	1.09022E-003	7	...........	-327.66
	381	0.0764	-6.59625E-001	-3.28411E-005	0.00000E+000	-6.60000E-001	1.14022E-003	7	...........	-327.66
	382	0.0766	-6.69638E-001	-3.30569E-005	0.00000E+000	-6.70000E-001	9.90224E-004	7	...........	-327.66
	383	0.0768	-6.79613E-001	-3.32584E-005	0.00000E+000	-6.80000E-001	1.24022E-003	7	...........	-327.66
	384	0.077	-6.89700E-001	-3.34579E-005	0.00000E+000	-6.90000E-001	1.09022E-003	7	...........	-327.66
	385	0.0772	-6.99688E-001	-3.36532E-005	0.00000E+000	-7.00000E-001	1.19022E-003	7	...........	-327.66
	386	0.0774	-7.09613E-001	-3.38402E-005	0.00000E+000	-7.10000E-001	1.11522E-003	7	...........	-327.66
	387	0.0776	-7.19675E-001	-3.40187E-005	0.00000E+000	-7.20000E-001	1.21522E-003	7	...........	-327.66
	388	0.0778	-7.29663E-001	-3.41910E-005	0.00000E+000	-7.30000E-001	1.16522E-003	7	...........	-327.66
	389	0.078	-7.39688E-001	-3.43563E-005	0.00000E+000	-7.40000E-001	1.04022E-003	7	...........	-327.66
	390	0.0782	-7.49663E-001	-3.45116E-005	0.00000E+000	-7.50000E-001	1.06522E-003	7	...........	-327.66
	391	0.0784	-7.59663E-001	-3.46566E-005	0.00000E+000	-7.60000E-001	1.04022E-003	7	...........	-327.66
	392	0.0786	-7.69663E-001	-3.47938E-005	0.00000E+000	-7.70000E-001	1.11522E-003	7	...........	-327.66
	393	0.0788	-7.79350E-001	-3.49244E-005	0.00000E+000	-7.80000E-001	9.90224E-004	7	...........	-327.66
	394	0.079	-7.89675E-001	-3.50436E-005	0.00000E+000	-7.90000E-001	1.11522E-003	7	...........	-327.66
	395	0.0792	-7.99675E-001	-3.51504E-005	0.00000E+000	-8.00000E-001	1.19022E-003	7	...........	-327.66
	396	0.0794	-8.09638E-001	-3.52421E-005	0.00000E+000	-8.10000E-001	1.16522E-003	7	...........	-327.66
	397	0.0796	-8.19675E-001	-3.53234E-005	0.00000E+000	-8.20000E-001	1.11522E-003	7	...........	-327.66
	398	0.0798	-8.29650E-001	-3.53932E-005	0.00000E+000	-8.30000E-001	1.14022E-003	7	...........	-327.66
	399	0.08	-8.39700E-001	-3.54479E-005	0.00000E+000	-8.40000E-001	1.01522E-003	7	...........	-327.66
	400	0.0802	-8.49713E-001	-3.54867E-005	0.00000E+000	-8.50000E-001	1.14022E-003	7	...........	-327.66
	401	0.0804	-8.59713E-001	-3.55134E-005	0.00000E+000	-8.60000E-001	1.09022E-003	7	...........	-327.66
	402	0.0806	-8.69638E-001	-3.55212E-005	0.00000E+000	-8.70000E-001	1.06522E-003	7	...........	-327.66
	403	0.0808	-8.79575E-001	-3.55097E-005	0.00000E+000	-8.80000E-001	1.04022E-003	7	...........	-327.66
	404	0.081	-8.89613E-001	-3.54832E-005	0.00000E+000	-8.90000E-001	1.14022E-003	7	...........	-327.66
	405	0.0812	-8.99700E-001	-3.54337E-005	0.00000E+000	-9.00000E-001	1.11522E-003	7	...........	-327.66
	406	0.0814	-8.89725E-001	-3.32406E-005	0.00000E+000	-8.90000E-001	1.16522E-003	7	...........	-327.66
	407	0.0816	-8.79638E-001	-3.10976E-005	0.00000E+000	-8.80000E-001	1.21522E-003	7	...........	-327.66
	408	0.0818	-8.69650E-001	-2.92458E-005	0.00000E+000	-8.70000E-001	1.14022E-003	7	...........	-327.66
	409	0.082	-8.59713E-001	-2.75829E-005	0.00000E+000	-8.60000E-001	1.19022E-003	7	...........	-327.66
	410	0.0822	-8.49788E-001	-2.60519E-005	0.00000E+000	-8.50000E-001	1.14022E-003	7	...........	-327.66
	411	0.0824	-8.39738E-001	-2.46212E-005	0.00000E+000	-8.40000E-001	1.24022E-003	7	...........	-327.66
	412	0.0826	-8.29650E-001	-2.32638E-005	0.00000E+000	-8.30000E-001	1.29022E-003	7	...........	-327.66
	413	0.0828	-8.19738E-001	-2.19673E-005	0.00000E+000	-8.20000E-001	1.09022E-003	7	...........	-327.66
	414	0.083	-8.09738E-001	-2.07197E-005	0.00000E+000	-8.10000E-001	1.14022E-003	7	...........	-327.66
	415	0.0832	-7.99688E-001	-1.95148E-005	0.00000E+000	-8.00000E-001	1.14022E-003	7	...........	-327.66
	416	0.0834	-7.89650E-001	-1.83476E-005	0.00000E+000	-7.90000E-001	1.16522E-003	7	...........	-327.66
	417	0.0836	-7.79800E-001	-1.72117E-005	0.00000E+000	-7.80000E-001	1.09022E-003	7	...........	-327.66
	418	0.0838	-7.69813E-001	-1.61048E-005	0.00000E+000	-7.70000E-001	1.14022E-003	7	...........	-327.66
	419	0.084	-7.59738E-001	-1.50224E-005	0.00000E+000	-7.60000E-001	1.21522E-003	7	...........	-327.66
	420	0.0842	-7.49725E-001	-1.39700E-005	0.00000E+000	-7.50000E-001	1.11522E-003	7	...........	-327.66
	421	0.0844	-7.39850E-001	-1.29399E-005	0.00000E+000	-7.40000E-001	1.09022E-003	7	...........	-327.66
	422	0.0846	-7.29775E-001	-1.19252E-005	0.00000E+000	-7.30000E-001	1.16522E-003	7	...........	-327.66
	423	0.0848	-7.19738E-001	-1.09376E-005	0.00000E+000	-7.20000E-001	1.14022E-003	7	...........	-327.66
	424	0.085	-7.09713E-001	-9.96945E-006	0.00000E+000	-7.10000E-001	1.14022E-003	7	...........	-327.66
	425	0.0852	-6.99850E-001	-9.02533E-006	0.00000E+000	-7.00000E-001	1.16522E-003	7	...........	-327.66
	426	0.0854	-6.89813E-001	-8.09345E-006	0.00000E+000	-6.90000E-001	1.29022E-003	7	...........	-327.66
	427	0.0856	-6.79775E-001	-7.18308E-006	0.00000E+000	-6.80000E-001	1.11522E-003	7	...........	-327.66
	428	0.0858	-6.69713E-001	-6.29295E-006	0.00000E+000	-6.70000E-001	1.11522E-003	7	...........	-327.66
	429	0.086	-6.59838E-001	-5.42109E-006	0.00000E+000	-6.60000E-001	1.06522E-003	7	...........	-327.66
	430	0.0862	-6.49700E-001	-4.56472E-006	0.00000E+000	-6.50000E-001	1.16522E-003	7	...........	-327.66
	431	0.0864	-6.39813E-001	-3.72710E-006	0.00000E+000	-6.40000E-001	1.09022E-003	7	...........	-327.66
	432	0.0866	-6.29738E-001	-2.90374E-006	0.00000E+000	-6.30000E-001	1.04022E-003	7	...........	-327.66
	433	0.0868	-6.19838E-001	-2.10013E-006	0.00000E+000	-6.20000E-001	9.40224E-004	7	...........	-327.66
	434	0.087	-6.09825E-001	-1.30727E-006	0.00000E+000	-6.10000E-001	9.15224E-004	7	...........	-327.66
	435	0.0872	-5.99813E-001	-5.32419E-007	0.00000E+000	-6.00000E-001	9.90224E-004	7	...........	-327.66
	436	0.0874	-5.89888E-001	2.26935E-007	0.00000E+000	-5.90000E-001	1.24022E-003	7	...........	-327.66
	437	0.0876	-5.79925E-001	9.76537E-007	0.00000E+000	-5.80000E-001	1.19022E-003	7	...........	-327.66
	438	0.0878	-5.69838E-001	1.70964E-006	0.00000E+000	-5.70000E-001	1.14022E-003	7	...........	-327.66
	439	0.088	-5.59863E-001	2.43449E-006	0.00000E+000	-5.60000E-001	1.21522E-003	7	...........	-327.66
	440	0.0882	-5.49713E-001	3.14308E-006	0.00000E+000	-5.50000E-001	1.06522E-003	7	...........	-327.66
	441	0.0884	-5.39913E-001	3.84618E-006	0.00000E+000	-5.40000E-001	1.14022E-003	7	...........	-327.66
	442	0.0886	-5.29913E-001	4.53577E-006	0.00000E+000	-5.30000E-001	1.04022E-003	7	...........	-327.66
	443	0.0888	-5.19963E-001	5.21561E-006	0.00000E+000	-5.20000E-001	1.11522E-003	7	...........	-327.66
	444	0.089	-5.09900E-001	5.88596E-006	0.00000E+000	-5.10000E-001	1.11522E-003	7	...........	-327.66
	445	0.0892	-4.99800E-001	6.54930E-006	0.00000E+000	-5.00000E-001	1.14022E-003	7	...........	-327.66
	446	0.0894	-4.89763E-001	7.20189E-006	0.00000E+000	-4.90000E-001	1.19022E-003	7	...........	-327.66
	447	0.0896	-4.79950E-001	7.84047E-006	0.00000E+000	-4.80000E-001	9.90224E-004	7	...........	-327.66
	448	0.0898	-4.69888E-001	8.48331E-006	0.00000E+000	-4.70000E-001	1.11522E-003	7	...........	-327.66
	449	0.09	-4.59938E-001	9.11065E-006	0.00000E+000	-4.60000E-001	1.14022E-003	7	...........	-327.66
	450	0.0902	-4.49850E-001	9.73223E-006	0.00000E+000	-4.50000E-001	1.11522E-003	7	...........	-327.66
	451	0.0904	-4.39963E-001	1.03426E-005	0.00000E+000	-4.40000E-001	1.29022E-003	7	...........	-327.66
	452	0.0906	-4.29888E-001	1.09476E-005	0.00000E+000	-4.30000E-001	1.14022E-003	7	...........	-327.66
	453	0.0908	-4.19938E-001	1.15445E-005	0.00000E+000	-4.20000E-001	1.29022E-003	7	...........	-327.66
	454	0.091	-4.09975E-001	1.21353E-005	0.00000E+000	-4.10000E-001	1.21522E-003	7	...........	-327.66
	455	0.0912	-3.99938E-001	1.27199E-005	0.00000E+000	-4.00000E-001	1.09022E-003	7	...........	-327.66
	456	0.0914	-3.89863E-001	1.32910E-005	0.00000E+000	-3.90000E-001	1.19022E-003	7	...........	-327.66
	457	0.0916	-3.80063E-001	1.38583E-005	0.00000E+000	-3.80000E-001	1.21522E-003	7	...........	-327.66
	458	0.0918	-3.69838E-001	1.44151E-005	0.00000E+000	-3.70000E-001	1.19022E-003	7	...........	-327.66
	459	0.092	-3.59988E-001	1.49634E-005	0.00000E+000	-3.60000E-001	1.24022E-003	7	...........	-327.66
	460	0.0922	-3.50000E-001	1.55008E-005	0.00000E+000	-3.50000E-001	1.16522E-003	7	...........	-327.66
	461	0.0924	-3.40050E-001	1.60286E-005	0.00000E+000	-3.40000E-001	1.21522E-003	7	...........	-327.66
	462	0.0926	-3.30000E-001	1.65529E-005	0.00000E+000	-3.30000E-001	1.24022E-003	7	...........	-327.66
	463	0.0928	-3.20063E-001	1.70585E-005	0.00000E+000	-3.20000E-001	1.11522E-003	7	...........	-327.66
	464	0.093	-3.10000E-001	1.75623E-005	0.00000E+000	-3.10000E-001	1.11522E-003	7	...........	-327.66
	465	0.0932	-3.00025E-001	1.80509E-005	0.00000E+000	-3.00000E-001	1.11522E-003	7	...........	-327.66
	466	0.0934	-2.89988E-001	1.85339E-005	0.00000E+000	-2.90000E-001	9.90224E-004	7	...........	-327.66
	467	0.0936	-2.80013E-001	1.89982E-005	0.00000E+000	-2.80000E-001	1.11522E-003	7	...........	-327.66
	468	0.0938	-2.69975E-001	1.94568E-005	0.00000E+000	-2.70000E-001	1.04022E-003	7	...........	-327.66
	469	0.094	-2.60038E-001	1.99044E-005	0.00000E+000	-2.60000E-001	1.06522E-003	7	...........	-327.66
	470	0.0942	-2.49925E-001	2.03397E-005	0.00000E+000	-2.50000E-001	1.19022E-003	7	...........	-327.66
	471	0.0944	-2.40063E-001	2.07662E-005	0.00000E+000	-2.40000E-001	1.14022E-003	7	...........	-327.66
	472	0.0946	-2.29988E-001	2.11830E-005	0.00000E+000	-2.30000E-001	1.24022E-003	7	...........	-327.66
	473	0.0948	-2.19938E-001	2.15811E-005	0.00000E+000	-2.20000E-001	1.06522E-003	7	...........	-327.66
	474	0.095	-2.10100E-001	2.19694E-005	0.00000E+000	-2.10000E-001	1.04022E-003	7	...........	-327.66
	475	0.0952	-2.00050E-001	2.23532E-005	0.00000E+000	-2.00000E-001	1.09022E-003	7	...........	-327.66
	476	0.0954	-1.89925E-001	2.27210E-005	0.00000E+000	-1.90000E-001	1.01522E-003	7	...........	-327.66
	477	0.0956	-1.80025E-001	2.30750E-005	0.00000E+000	-1.80000E-001	1.11522E-003	7	...........	-327.66
	478	0.0958	-1.69975E-001	2.34236E-005	0.00000E+000	-1.70000E-001	1.09022E-003	7	...........	-327.66
	479	0.096	-1.60050E-001	2.37554E-005	0.00000E+000	-1.60000E-001	1.14022E-003	7	...........	-327.66
	480	0.0962	-1.49963E-001	2.40822E-005	0.00000E+000	-1.50000E-001	1.09022E-003	7	...........	-327.66
	481	0.0964	-1.40013E-001	2.43940E-005	0.00000E+000	-1.40000E-001	1.14022E-003	7	...........	-327.66
	482	0.0966	-1.29963E-001	2.47040E-005	0.00000E+000	-1.30000E-001	1.24022E-003	7	...........	-327.66
	483	0.0968	-1.20038E-001	2.50046E-005	0.00000E+000	-1.20000E-001	1.04022E-003	7	...........	-327.66
	484	0.097	-1.10000E-001	2.52888E-005	0.00000E+000	-1.10000E-001	1.14022E-003	7	...........	-327.66
	485	0.0972	-1.00000E-001	2.55674E-005	0.00000E+000	-1.00000E-001	1.09022E-003	7	...........	-327.66
	486	0.0974	-9.00502E-002	2.58322E-005	0.00000E+000	-9.00000E-002	1.24022E-003	7	...........	-327.66
	487	0.0976	-8.00627E-002	2.60952E-005	0.00000E+000	-8.00000E-002	1.06522E-003	7	...........	-327.66
	488	0.0978	-7.00127E-002	2.63502E-005	0.00000E+000	-7.00000E-002	1.11522E-003	7	...........	-327.66
	489	0.098	-6.00627E-002	2.65960E-005	0.00000E+000	-6.00000E-002	1.29022E-003	7	...........	-327.66
	490	0.0982	-5.00877E-002	2.68338E-005	0.00000E+000	-5.00000E-002	1.04022E-003	7	...........	-327.66
	491	0.0984	-4.00002E-002	2.70653E-005	0.00000E+000	-4.00000E-002	1.04022E-003	7	...........	-327.66
	492	0.0986	-2.99002E-002	2.72911E-005	0.00000E+000	-3.00000E-002	1.09022E-003	7	...........	-327.66
	493	0.0988	-2.00252E-002	2.75079E-005	0.00000E+000	-2.00000E-002	1.16522E-003	7	...........	-327.66
	494	0.099	-9.90019E-003	2.77224E-005	0.00000E+000	-1.00000E-002	1.21522E-003	7	...........	-327.66
	495	0.0992	-6.26875E-005	2.79250E-005	0.00000E+000	-1.49012E-008	1.09022E-003	7	...........	-327.66
	496	0.0994	1.00248E-002	2.81247E-005	0.00000E+000	9.99999E-003	1.21522E-003	7	...........	-327.66
	497	0.0996	1.99373E-002	2.83180E-005	0.00000E+000	2.00000E-002	1.21522E-003	7	...........	-327.66
	498	0.0998	2.99873E-002	2.85038E-005	0.00000E+000	3.00000E-002	1.06522E-003	7	...........	-327.66
	499	0.1	3.98873E-002	2.86823E-005	0.00000E+000	4.00000E-002	1.16522E-003	7	...........	-327.66
	500	0.1002	4.99373E-002	2.88521E-005	0.00000E+000	5.00000E-002	1.21522E-003	7	...........	-327.66
	501	0.1004	5.99498E-002	2.90079E-005	0.00000E+000	6.00000E-002	1.16522E-003	7	...........	-327.66
	502	0.1006	7.00373E-002	2.91534E-005	0.00000E+000	7.00000E-002	1.14022E-003	7	...........	-327.66
	503	0.1008	7.99373E-002	2.92894E-005	0.00000E+000	8.00000E-002	1.06522E-003	7	...........	-327.66
	504	0.101	9.02498E-002	2.94172E-005	0.00000E+000	9.00000E-002	1.19022E-003	7	...........	-327.66
	505	0.1012	9.99623E-002	2.95334E-005	0.00000E+000	1.00000E-001	1.16522E-003	7	...........	-327.66
	506	0.1014	1.10012E-001	2.96459E-005	0.00000E+000	1.10000E-001	1.24022E-003	7	...........	-327.66
	507	0.1016	1.19937E-001	2.97425E-005	0.00000E+000	1.20000E-001	1.24022E-003	7	...........	-327.66
	508	0.1018	1.30050E-001	2.98330E-005	0.00000E+000	1.30000E-001	1.19022E-003	7	...........	-327.66
	509	0.102	1.40062E-001	2.99122E-005	0.00000E+000	1.40000E-001	1.14022E-003	7	...........	-327.66
	510	0.1022	1.50062E-001	2.99802E-005	0.00000E+000	1.50000E-001	1.14022E-003	7	...........	-327.66
	511	0.1024	1.59950E-001	3.00360E-005	0.00000E+000	1.60000E-001	1.14022E-003	7	...........	-327.66
	512	0.1026	1.70062E-001	3.00890E-005	0.00000E+000	1.70000E-001	1.11522E-003	7	...........	-327.66
	513	0.1028	1.79975E-001	3.01293E-005	0.00000E+000	1.80000E-001	1.09022E-003	7	...........	-327.66
	514	0.103	1.90012E-001	3.01643E-005	0.00000E+000	1.90000E-001	1.19022E-003	7	...........	-327.66
	515	0.1032	2.00025E-001	3.01890E-005	0.00000E+000	2.00000E-001	1.24022E-003	7	...........	-327.66
	516	0.1034	2.09900E-001	3.02085E-005	0.00000E+000	2.10000E-001	1.21522E-003	7	...........	-327.66
	517	0.1036	2.19937E-001	3.02188E-005	0.00000E+000	2.20000E-001	1.29022E-003	7	...........	-327.66
	518	0.1038	2.30012E-001	3.02265E-005	0.00000E+000	2.30000E-001	1.14022E-003	7	...........	-327.66
	519	0.104	2.39962E-001	3.02278E-005	0.00000E+000	2.40000E-001	1.09022E-003	7	...........	-327.66
	520	0.1042	2.50000E-001	3.02243E-005	0.00000E+000	2.50000E-001	1.19022E-003	7	...........	-327.66
	521	0.1044	2.59962E-001	3.02093E-005	0.00000E+000	2.60000E-001	1.06522E-003	7	...........	-327.66
	522	0.1046	2.70100E-001	3.01978E-005	0.00000E+000	2.70000E-001	1.09022E-003	7	...........	-327.66
	523	0.1048	2.79950E-001	3.01813E-005	0.00000E+000	2.80000E-001	1.06522E-003	7	...........	-327.66
	524	0.105	2.89962E-001	3.01598E-005	0.00000E+000	2.90000E-001	1.19022E-003	7	...........	-327.66
	525	0.1052	2.99937E-001	3.01365E-005	0.00000E+000	3.00000E-001	1.24022E-003	7	...........	-327.66
	526	0.1054	3.09925E-001	3.01128E-005	0.00000E+000	3.10000E-001	9.90224E-004	7	...........	-327.66
	527	0.1056	3.19987E-001	3.00808E-005	0.00000E+000	3.20000E-001	1.01522E-003	7	...........	-327.66
	528	0.1058	3.29937E-001	3.00550E-005	0.00000E+000	3.30000E-001	1.06522E-003	7	...........	-327.66
	529	0.106	3.39975E-001	3.00210E-005	0.00000E+000	3.40000E-001	1.06522E-003	7	...........	-327.66
	530	0.1062	3.50012E-001	2.99847E-005	0.00000E+000	3.50000E-001	1.11522E-003	7	...........	-327.66
	531	0.1064	3.59950E-001	2.99495E-005	0.00000E+000	3.60000E-001	1.14022E-003	7	...........	-327.66
	532	0.1066	3.70025E-001	2.99170E-005	0.00000E+000	3.70000E-001	1.24022E-003	7	...........	-327.66
	533	0.1068	3.79937E-001	2.98795E-005	0.00000E+000	3.80000E-001	1.16522E-003	7	...........	-327.66
	534	0.107	3.89950E-001	2.98417E-005	0.00000E+000	3.90000E-001	1.11522E-003	7	...........	-327.66
	535	0.1072	3.99925E-001	2.98062E-005	0.00000E+000	4.00000E-001	1.04022E-003	7	...........	-327.66
	536	0.1074	4.09950E-001	2.97660E-005	0.00000E+000	4.10000E-001	1.14022E-003	7	...........	-327.66
	537	0.1076	4.19987E-001	2.97257E-005	0.00000E+000	4.20000E-001	1.16522E-003	7	...........	-327.66
	538	0.1078	4.30062E-001	2.96889E-005	0.00000E+000	4.30000E-001	1.09022E-003	7	...........	-327.66
	539	0.108	4.39937E-001	2.96494E-005	0.00000E+000	4.40000E-001	1.09022E-003	7	...........	-327.66
	540	0.1082	4.50025E-001	2.96122E-005	0.00000E+000	4.50000E-001	1.29022E-003	7	...........	-327.66
	541	0.1084	4.59937E-001	2.95762E-005	0.00000E+000	4.60000E-001	1.24022E-003	7	...........	-327.66
	542	0.1086	4.69912E-001	2.95442E-005	0.00000E+000	4.70000E-001	1.14022E-003	7	...........	-327.66
	543	0.1088	4.79887E-001	2.95127E-005	0.00000E+000	4.80000E-001	1.01522E-003	7	...........	-327.66
	544	0.109	4.89975E-001	2.94812E-005	0.00000E+000	4.90000E-001	1.19022E-003	7	...........	-327.66
	545	0.1092	4.99962E-001	2.94507E-005	0.00000E+000	5.00000E-001	1.19022E-003	7	...........	-327.66
	546	0.1094	5.09937E-001	2.94227E-005	0.00000E+000	5.10000E-001	1.04022E-003	7	...........	-327.66
	547	0.1096	5.19937E-001	2.94004E-005	0.00000E+000	5.20000E-001	1.06522E-003	7	...........	-327.66
	548	0.1098	5.29937E-001	2.93799E-005	0.00000E+000	5.30000E-001	1.24022E-003	7	...........	-327.66
	549	0.11	5.39937E-001	2.93567E-005	0.00000E+000	5.40000E-001	1.24022E-003	7	...........	-327.66
	550	0.1102	5.49937E-001	2.93427E-005	0.00000E+000	5.50000E-001	1.09022E-003	7	...........	-327.66
	551	0.1104	5.59937E-001	2.93297E-005	0.00000E+000	5.60000E-001	1.11522E-003	7	...........	-327.66
	552	0.1106	5.70000E-001	2.93201E-005	0.00000E+000	5.70000E-001	1.29022E-003	7	...........	-327.66
	553	0.1108	5.79987E-001	2.93149E-005	0.00000E+000	5.80000E-001	1.24022E-003	7	...........	-327.66
	554	0.111	5.89937E-001	2.93096E-005	0.00000E+000	5.90000E-001	9.65224E-004	7	...........	-327.66
	555	0.1112	5.99987E-001	2.93136E-005	0.00000E+000	6.00000E-001	1.11522E-003	7	...........	-327.66
CURVE3	TABLE
	Pt	T	Vf	Im	Vu	Sig	Ach	IERange	Over	Temp
	#	s	V vs. Ref.	A	V	V	V	#	bits	deg C
	556	0.1114	5.90012E-001	2.68176E-005	0.00000E+000	5.90000E-001	1.21522E-003	7	...........	-327.66
	557	0.1116	5.79950E-001	2.44907E-005	0.00000E+000	5.80000E-001	1.01522E-003	7	...........	-327.66
	558	0.1118	5.70025E-001	2.25527E-005	0.00000E+000	5.70000E-001	1.14022E-003	7	...........	-327.66
	559	0.112	5.59937E-001	2.08845E-005	0.00000E+000	5.60000E-001	1.16522E-003	7	...........	-327.66
	560	0.1122	5.50000E-001	1.93875E-005	0.00000E+000	5.50000E-001	1.16522E-003	7	...........	-327.66
	561	0.1124	5.39962E-001	1.80311E-005	0.00000E+000	5.40000E-001	1.14022E-003	7	...........	-327.66
	562	0.1126	5.29937E-001	1.67847E-005	0.00000E+000	5.30000E-001	1.06522E-003	7	...........	-327.66
	563	0.1128	5.19912E-001	1.56183E-005	0.00000E+000	5.20000E-001	1.04022E-003	7	...........	-327.66
	564	0.113	5.09975E-001	1.45319E-005	0.00000E+000	5.10000E-001	1.11522E-003	7	...........	-327.66
	565	0.1132	4.99962E-001	1.34987E-005	0.00000E+000	5.00000E-001	1.14022E-003	7	...........	-327.66
	566	0.1134	4.89962E-001	1.25191E-005	0.00000E+000	4.90000E-001	1.11522E-003	7	...........	-327.66
	567	0.1136	4.79987E-001	1.15812E-005	0.00000E+000	4.80000E-001	1.24022E-003	7	...........	-327.66
	568	0.1138	4.69925E-001	1.06919E-005	0.00000E+000	4.70000E-001	1.19022E-003	7	...........	-327.66
	569	0.114	4.60012E-001	9.83074E-006	0.00000E+000	4.60000E-001	1.19022E-003	7	...........	-327.66
	570	0.1142	4.50150E-001	9.00688E-006	0.00000E+000	4.50000E-001	1.04022E-003	7	...........	-327.66
	571	0.1144	4.39962E-001	8.20402E-006	0.00000E+000	4.40000E-001	1.24022E-003	7	...........	-327.66
	572	0.1146	4.29987E-001	7.43317E-006	0.00000E+000	4.30000E-001	1.14022E-003	7	...........	-327.66
	573	0.1148	4.20075E-001	6.68907E-006	0.00000E+000	4.20000E-001	1.06522E-003	7	...........	-327.66
	574	0.115	4.10050E-001	5.96322E-006	0.00000E+000	4.10000E-001	1.14022E-003	7	...........	-327.66
	575	0.1152	3.99912E-001	5.25912E-006	0.00000E+000	4.00000E-001	1.14022E-003	7	...........	-327.66
	576	0.1154	3.90000E-001	4.57678E-006	0.00000E+000	3.90000E-001	1.09022E-003	7	...........	-327.66
	577	0.1156	3.79937E-001	3.91244E-006	0.00000E+000	3.80000E-001	9.40224E-004	7	...........	-327.66
	578	0.1158	3.70050E-001	3.26710E-006	0.00000E+000	3.70000E-001	1.09022E-003	7	...........	-327.66
	579	0.116	3.59950E-001	2.63526E-006	0.00000E+000	3.60000E-001	1.09022E-003	7	...........	-327.66
	580	0.1162	3.50162E-001	2.02043E-006	0.00000E+000	3.50000E-001	1.04022E-003	7	...........	-327.66
	581	0.1164	3.39937E-001	1.41460E-006	0.00000E+000	3.40000E-001	1.11522E-003	7	...........	-327.66
	582	0.1166	3.30187E-001	8.27267E-007	0.00000E+000	3.30000E-001	9.40224E-004	7	...........	-327.66
	583	0.1168	3.20087E-001	2.55689E-007	0.00000E+000	3.20000E-001	9.90224E-004	7	...........	-327.66
	584	0.117	3.09987E-001	-3.10388E-007	0.00000E+000	3.10000E-001	9.90224E-004	7	...........	-327.66
	585	0.1172	3.00050E-001	-8.65714E-007	0.00000E+000	3.00000E-001	9.90224E-004	7	...........	-327.66
	586	0.1174	2.90037E-001	-1.40329E-006	0.00000E+000	2.90000E-001	9.90224E-004	7	...........	-327.66
	587	0.1176	2.80025E-001	-1.93436E-006	0.00000E+000	2.80000E-001	1.21522E-003	7	...........	-327.66
	588	0.1178	2.70125E-001	-2.45418E-006	0.00000E+000	2.70000E-001	1.14022E-003	7	...........	-327.66
	589	0.118	2.60037E-001	-2.96650E-006	0.00000E+000	2.60000E-001	1.11522E-003	7	...........	-327.66
	590	0.1182	2.50150E-001	-3.46682E-006	0.00000E+000	2.50000E-001	1.11522E-003	7	...........	-327.66
	591	0.1184	2.40062E-001	-3.95914E-006	0.00000E+000	2.40000E-001	1.04022E-003	7	...........	-327.66
	592	0.1186	2.30112E-001	-4.44570E-006	0.00000E+000	2.30000E-001	1.16522E-003	7	...........	-327.66
	593	0.1188	2.20100E-001	-4.92902E-006	0.00000E+000	2.20000E-001	1.11522E-003	7	...........	-327.66
	594	0.119	2.10062E-001	-5.39458E-006	0.00000E+000	2.10000E-001	1.09022E-003	7	...........	-327.66
	595	0.1192	2.00137E-001	-5.85914E-006	0.00000E+000	2.00000E-001	1.19022E-003	7	...........	-327.66
	596	0.1194	1.90150E-001	-6.31321E-006	0.00000E+000	1.90000E-001	9.15224E-004	7	...........	-327.66
	597	0.1196	1.80112E-001	-6.76652E-006	0.00000E+000	1.80000E-001	1.19022E-003	7	...........	-327.66
	598	0.1198	1.70237E-001	-7.20533E-006	0.00000E+000	1.70000E-001	1.09022E-003	7	...........	-327.66
	599	0.12	1.60125E-001	-7.64539E-006	0.00000E+000	1.60000E-001	1.06522E-003	7	...........	-327.66
	600	0.1202	1.50237E-001	-8.07595E-006	0.00000E+000	1.50000E-001	1.06522E-003	7	...........	-327.66
	601	0.1204	1.40150E-001	-8.50926E-006	0.00000E+000	1.40000E-001	1.21522E-003	7	...........	-327.66
	602	0.1206	1.30250E-001	-8.92506E-006	0.00000E+000	1.30000E-001	1.24022E-003	7	...........	-327.66
	603	0.1208	1.20212E-001	-9.34387E-006	0.00000E+000	1.20000E-001	1.19022E-003	7	...........	-327.66
	604	0.121	1.10187E-001	-9.75418E-006	0.00000E+000	1.10000E-001	1.09022E-003	7	...........	-327.66
	605	0.1212	1.00037E-001	-1.01625E-005	0.00000E+000	1.00000E-001	1.16522E-003	7	...........	-327.66
	606	0.1214	9.02748E-002	-1.05628E-005	0.00000E+000	9.00000E-002	1.14022E-003	7	...........	-327.66
	607	0.1216	8.01998E-002	-1.09603E-005	0.00000E+000	8.00000E-002	1.09022E-003	7	...........	-327.66
	608	0.1218	7.01623E-002	-1.13569E-005	0.00000E+000	7.00000E-002	1.04022E-003	7	...........	-327.66
	609	0.122	6.01248E-002	-1.17447E-005	0.00000E+000	6.00000E-002	1.01522E-003	7	...........	-327.66
	610	0.1222	5.01373E-002	-1.21307E-005	0.00000E+000	5.00000E-002	1.11522E-003	7	...........	-327.66
	611	0.1224	3.99998E-002	-1.25176E-005	0.00000E+000	4.00000E-002	1.01522E-003	7	...........	-327.66
	612	0.1226	3.01998E-002	-1.28949E-005	0.00000E+000	3.00000E-002	1.24022E-003	7	...........	-327.66
	613	0.1228	2.00873E-002	-1.32692E-005	0.00000E+000	2.00000E-002	1.09022E-003	7	...........	-327.66
	614	0.123	1.01998E-002	-1.36385E-005	0.00000E+000	9.99999E-003	1.24022E-003	7	...........	-327.66
	615	0.1232	9.98125E-005	-1.40073E-005	0.00000E+000	-1.49012E-008	1.16522E-003	7	...........	-327.66
	616	0.1234	-9.81269E-003	-1.43726E-005	0.00000E+000	-1.00000E-002	1.09022E-003	7	...........	-327.66
	617	0.1236	-1.98752E-002	-1.47374E-005	0.00000E+000	-2.00000E-002	1.14022E-003	7	...........	-327.66
	618	0.1238	-2.97127E-002	-1.50937E-005	0.00000E+000	-3.00000E-002	1.24022E-003	7	...........	-327.66
	619	0.124	-3.98377E-002	-1.54475E-005	0.00000E+000	-4.00000E-002	1.14022E-003	7	...........	-327.66
	620	0.1242	-4.98252E-002	-1.58030E-005	0.00000E+000	-5.00000E-002	1.16522E-003	7	...........	-327.66
	621	0.1244	-5.98377E-002	-1.61513E-005	0.00000E+000	-6.00000E-002	1.16522E-003	7	...........	-327.66
	622	0.1246	-6.97502E-002	-1.64951E-005	0.00000E+000	-7.00000E-002	1.19022E-003	7	...........	-327.66
	623	0.1248	-7.98377E-002	-1.68419E-005	0.00000E+000	-8.00000E-002	1.16522E-003	7	...........	-327.66
	624	0.125	-8.98502E-002	-1.71789E-005	0.00000E+000	-9.00000E-002	9.65224E-004	7	...........	-327.66
	625	0.1252	-9.99252E-002	-1.75155E-005	0.00000E+000	-1.00000E-001	1.09022E-003	7	...........	-327.66
	626	0.1254	-1.09788E-001	-1.78508E-005	0.00000E+000	-1.10000E-001	1.01522E-003	7	...........	-327.66
	627	0.1256	-1.19838E-001	-1.81763E-005	0.00000E+000	-1.20000E-001	1.14022E-003	7	...........	-327.66
	628	0.1258	-1.29975E-001	-1.85096E-005	0.00000E+000	-1.30000E-001	9.65224E-004	7	...........	-327.66
	629	0.126	-1.39838E-001	-1.88372E-005	0.00000E+000	-1.40000E-001	1.06522E-003	7	...........	-327.66
	630	0.1262	-1.49750E-001	-1.91577E-005	0.00000E+000	-1.50000E-001	1.14022E-003	7	...........	-327.66
	631	0.1264	-1.59850E-001	-1.94815E-005	0.00000E+000	-1.60000E-001	1.16522E-003	7	...........	-327.66
	632	0.1266	-1.69725E-001	-1.97960E-005	0.00000E+000	-1.70000E-001	1.11522E-003	7	...........	-327.66
	633	0.1268	-1.79863E-001	-2.01141E-005	0.00000E+000	-1.80000E-001	1.14022E-003	7	...........	-327.66
	634	0.127	-1.89650E-001	-2.04279E-005	0.00000E+000	-1.90000E-001	1.21522E-003	7	...........	-327.66
	635	0.1272	-1.99800E-001	-2.07429E-005	0.00000E+000	-2.00000E-001	1.11522E-003	7	...........	-327.66
	636	0.1274	-2.09775E-001	-2.10537E-005	0.00000E+000	-2.10000E-001	1.11522E-003	7	...........	-327.66
	637	0.1276	-2.19800E-001	-2.13618E-005	0.00000E+000	-2.20000E-001	1.04022E-003	7	...........	-327.66
	638	0.1278	-2.29738E-001	-2.16753E-005	0.00000E+000	-2.30000E-001	1.09022E-003	7	...........	-327.66
	639	0.128	-2.39813E-001	-2.19771E-005	0.00000E+000	-2.40000E-001	1.19022E-003	7	...........	-327.66
	640	0.1282	-2.49863E-001	-2.22894E-005	0.00000E+000	-2.50000E-001	1.14022E-003	7	...........	-327.66
	641	0.1284	-2.59738E-001	-2.25942E-005	0.00000E+000	-2.60000E-001	1.01522E-003	7	...........	-327.66
	642	0.1286	-2.69750E-001	-2.28967E-005	0.00000E+000	-2.70000E-001	1.11522E-003	7	...........	-327.66
	643	0.1288	-2.79775E-001	-2.32025E-005	0.00000E+000	-2.80000E-001	1.06522E-003	7	...........	-327.66
	644	0.129	-2.89763E-001	-2.35063E-005	0.00000E+000	-2.90000E-001	1.09022E-003	7	...........	-327.66
	645	0.1292	-2.99838E-001	-2.38041E-005	0.00000E+000	-3.00000E-001	1.04022E-003	7	...........	-327.66
	646	0.1294	-3.09700E-001	-2.41014E-005	0.00000E+000	-3.10000E-001	1.14022E-003	7	...........	-327.66
	647	0.1296	-3.19913E-001	-2.44042E-005	0.00000E+000	-3.20000E-001	1.09022E-003	7	...........	-327.66
	648	0.1298	-3.29788E-001	-2.47027E-005	0.00000E+000	-3.30000E-001	1.09022E-003	7	...........	-327.66
	649	0.13	-3.39800E-001	-2.50003E-005	0.00000E+000	-3.40000E-001	1.14022E-003	7	...........	-327.66
	650	0.1302	-3.49650E-001	-2.52968E-005	0.00000E+000	-3.50000E-001	1.11522E-003	7	...........	-327.66
	651	0.1304	-3.59838E-001	-2.55928E-005	0.00000E+000	-3.60000E-001	1.04022E-003	7	...........	-327.66
	652	0.1306	-3.69675E-001	-2.58869E-005	0.00000E+000	-3.70000E-001	1.11522E-003	7	...........	-327.66
	653	0.1308	-3.79775E-001	-2.61804E-005	0.00000E+000	-3.80000E-001	1.21522E-003	7	...........	-327.66
	654	0.131	-3.89688E-001	-2.64670E-005	0.00000E+000	-3.90000E-001	1.29022E-003	7	...........	-327.66
	655	0.1312	-3.99800E-001	-2.67602E-005	0.00000E+000	-4.00000E-001	1.09022E-003	7	...........	-327.66
	656	0.1314	-4.09700E-001	-2.70468E-005	0.00000E+000	-4.10000E-001	1.16522E-003	7	...........	-327.66
	657	0.1316	-4.19713E-001	-2.73333E-005	0.00000E+000	-4.20000E-001	1.29022E-003	7	...........	-327.66
	658	0.1318	-4.29675E-001	-2.76201E-005	0.00000E+000	-4.30000E-001	1.19022E-003	7	...........	-327.66
	659	0.132	-4.39700E-001	-2.79001E-005	0.00000E+000	-4.40000E-001	1.11522E-003	7	...........	-327.66
	660	0.1322	-4.49713E-001	-2.81837E-005	0.00000E+000	-4.50000E-001	1.14022E-003	7	...........	-327.66
	661	0.1324	-4.59675E-001	-2.84592E-005	0.00000E+000	-4.60000E-001	1.26522E-003	7	...........	-327.66
	662	0.1326	-4.69713E-001	-2.87400E-005	0.00000E+000	-4.70000E-001	1.01522E-003	7	...........	-327.66
	663	0.1328	-4.79663E-001	-2.90125E-005	0.00000E+000	-4.80000E-001	1.29022E-003	7	...........	-327.66
	664	0.133	-4.89713E-001	-2.92838E-005	0.00000E+000	-4.90000E-001	1.09022E-003	7	...........	-327.66
	665	0.1332	-4.99738E-001	-2.95514E-005	0.00000E+000	-5.00000E-001	1.14022E-003	7	...........	-327.66
	666	0.1334	-5.09688E-001	-2.98194E-005	0.00000E+000	-5.10000E-001	1.14022E-003	7	...........	-327.66
	667	0.1336	-5.19688E-001	-3.00784E-005	0.00000E+000	-5.20000E-001	1.29022E-003	7	...........	-327.66
	668	0.1338	-5.29750E-001	-3.03427E-005	0.00000E+000	-5.30000E-001	1.14022E-003	7	...........	-327.66
	669	0.134	-5.39713E-001	-3.05978E-005	0.00000E+000	-5.40000E-001	1.09022E-003	7	...........	-327.66
	670	0.1342	-5.49725E-001	-3.08523E-005	0.00000E+000	-5.50000E-001	1.11522E-003	7	...........	-327.66
	671	0.1344	-5.59713E-001	-3.11008E-005	0.00000E+000	-5.60000E-001	1.16522E-003	7	...........	-327.66
	672	0.1346	-5.69688E-001	-3.13444E-005	0.00000E+000	-5.70000E-001	1.19022E-003	7	...........	-327.66
	673	0.1348	-5.79775E-001	-3.15904E-005	0.00000E+000	-5.80000E-001	1.19022E-003	7	...........	-327.66
	674	0.135	-5.89688E-001	-3.18282E-005	0.00000E+000	-5.90000E-001	1.09022E-003	7	...........	-327.66
	675	0.1352	-5.99688E-001	-3.20622E-005	0.00000E+000	-6.00000E-001	1.14022E-003	7	...........	-327.66
	676	0.1354	-6.09713E-001	-3.22955E-005	0.00000E+000	-6.10000E-001	1.16522E-003	7	...........	-327.66
	677	0.1356	-6.19613E-001	-3.25188E-005	0.00000E+000	-6.20000E-001	1.19022E-003	7	...........	-327.66
	678	0.1358	-6.29575E-001	-3.27371E-005	0.00000E+000	-6.30000E-001	1.16522E-003	7	...........	-327.66
	679	0.136	-6.39700E-001	-3.29571E-005	0.00000E+000	-6.40000E-001	1.21522E-003	7	...........	-327.66
	680	0.1362	-6.49600E-001	-3.31656E-005	0.00000E+000	-6.50000E-001	1.21522E-003	7	...........	-327.66
	681	0.1364	-6.59638E-001	-3.33709E-005	0.00000E+000	-6.60000E-001	9.90224E-004	7	...........	-327.66
	682	0.1366	-6.69638E-001	-3.35714E-005	0.00000E+000	-6.70000E-001	1.16522E-003	7	...........	-327.66
	683	0.1368	-6.79588E-001	-3.37647E-005	0.00000E+000	-6.80000E-001	1.01522E-003	7	...........	-327.66
	684	0.137	-6.89700E-001	-3.39492E-005	0.00000E+000	-6.90000E-001	1.26522E-003	7	...........	-327.66
	685	0.1372	-6.99625E-001	-3.41340E-005	0.00000E+000	-7.00000E-001	1.19022E-003	7	...........	-327.66
	686	0.1374	-7.09600E-001	-3.43040E-005	0.00000E+000	-7.10000E-001	1.11522E-003	7	...........	-327.66
	687	0.1376	-7.19713E-001	-3.44718E-005	0.00000E+000	-7.20000E-001	1.19022E-003	7	...........	-327.66
	688	0.1378	-7.29700E-001	-3.46326E-005	0.00000E+000	-7.30000E-001	1.04022E-003	7	...........	-327.66
	689	0.138	-7.39713E-001	-3.47813E-005	0.00000E+000	-7.40000E-001	1.19022E-003	7	...........	-327.66
	690	0.1382	-7.49650E-001	-3.49246E-005	0.00000E+000	-7.50000E-001	1.24022E-003	7	...........	-327.66
	691	0.1384	-7.59725E-001	-3.50599E-005	0.00000E+000	-7.60000E-001	9.90224E-004	7	...........	-327.66
	692	0.1386	-7.69663E-001	-3.51821E-005	0.00000E+000	-7.70000E-001	1.14022E-003	7	...........	-327.66
	693	0.1388	-7.79475E-001	-3.53004E-005	0.00000E+000	-7.80000E-001	1.19022E-003	7	...........	-327.66
	694	0.139	-7.89650E-001	-3.54042E-005	0.00000E+000	-7.90000E-001	1.09022E-003	7	...........	-327.66
	695	0.1392	-7.99613E-001	-3.54992E-005	0.00000E+000	-8.00000E-001	1.04022E-003	7	...........	-327.66
	696	0.1394	-8.09613E-001	-3.55782E-005	0.00000E+000	-8.10000E-001	1.14022E-003	7	...........	-327.66
	697	0.1396	-8.19675E-001	-3.56537E-005	0.00000E+000	-8.20000E-001	1.29022E-003	7	...........	-327.66
	698	0.1398	-8.29638E-001	-3.57092E-005	0.00000E+000	-8.30000E-001	1.19022E-003	7	...........	-327.66
	699	0.14	-8.39638E-001	-3.57562E-005	0.00000E+000	-8.40000E-001	1.19022E-003	7	...........	-327.66
	700	0.1402	-8.49688E-001	-3.57895E-005	0.00000E+000	-8.50000E-001	1.29022E-003	7	...........	-327.66
	701	0.1404	-8.59638E-001	-3.58067E-005	0.00000E+000	-8.60000E-001	1.21522E-003	7	...........	-327.66
	702	0.1406	-8.69625E-001	-3.58062E-005	0.00000E+000	-8.70000E-001	1.16522E-003	7	...........	-327.66
	703	0.1408	-8.79575E-001	-3.57927E-005	0.00000E+000	-8.80000E-001	1.14022E-003	7	...........	-327.66
	704	0.141	-8.89638E-001	-3.57600E-005	0.00000E+000	-8.90000E-001	1.16522E-003	7	...........	-327.66
	705	0.1412	-8.99638E-001	-3.57137E-005	0.00000E+000	-9.00000E-001	1.21522E-003	7	...........	-327.66
	706	0.1414	-8.89688E-001	-3.34874E-005	0.00000E+000	-8.90000E-001	1.14022E-003	7	...........	-327.66
	707	0.1416	-8.79688E-001	-3.12914E-005	0.00000E+000	-8.80000E-001	1.24022E-003	7	...........	-327.66
	708	0.1418	-8.69688E-001	-2.93834E-005	0.00000E+000	-8.70000E-001	1.11522E-003	7	...........	-327.66
	709	0.142	-8.59713E-001	-2.76626E-005	0.00000E+000	-8.60000E-001	1.14022E-003	7	...........	-327.66
	710	0.1422	-8.49750E-001	-2.60759E-005	0.00000E+000	-8.50000E-001	1.11522E-003	7	...........	-327.66
	711	0.1424	-8.39800E-001	-2.45894E-005	0.00000E+000	-8.40000E-001	1.16522E-003	7	...........	-327.66
	712	0.1426	-8.29650E-001	-2.31808E-005	0.00000E+000	-8.30000E-001	1.19022E-003	7	...........	-327.66
	713	0.1428	-8.19713E-001	-2.18346E-005	0.00000E+000	-8.20000E-001	1.21522E-003	7	...........	-327.66
	714	0.143	-8.09688E-001	-2.05404E-005	0.00000E+000	-8.10000E-001	1.19022E-003	7	...........	-327.66
	715	0.1432	-7.99763E-001	-1.92967E-005	0.00000E+000	-8.00000E-001	1.11522E-003	7	...........	-327.66
	716	0.1434	-7.89688E-001	-1.80858E-005	0.00000E+000	-7.90000E-001	1.19022E-003	7	...........	-327.66
	717	0.1436	-7.79613E-001	-1.69137E-005	0.00000E+000	-7.80000E-001	1.24022E-003	7	...........	-327.66
	718	0.1438	-7.69713E-001	-1.57737E-005	0.00000E+000	-7.70000E-001	1.16522E-003	7	...........	-327.66
	719	0.144	-7.59738E-001	-1.46586E-005	0.00000E+000	-7.60000E-001	1.09022E-003	7	...........	-327.66
	720	0.1442	-7.49713E-001	-1.35797E-005	0.00000E+000	-7.50000E-001	1.14022E-003	7	...........	-327.66
	721	0.1444	-7.39813E-001	-1.25233E-005	0.00000E+000	-7.40000E-001	1.14022E-003	7	...........	-327.66
	722	0.1446	-7.29713E-001	-1.14884E-005	0.00000E+000	-7.30000E-001	1.21522E-003	7	...........	-327.66
	723	0.1448	-7.19888E-001	-1.04813E-005	0.00000E+000	-7.20000E-001	1.14022E-003	7	...........	-327.66
	724	0.145	-7.09725E-001	-9.49989E-006	0.00000E+000	-7.10000E-001	1.16522E-003	7	...........	-327.66
	725	0.1452	-6.99688E-001	-8.53951E-006	0.00000E+000	-7.00000E-001	1.29022E-003	7	...........	-327.66
	726	0.1454	-6.89800E-001	-7.60038E-006	0.00000E+000	-6.90000E-001	1.19022E-003	7	...........	-327.66
	727	0.1456	-6.79738E-001	-6.68376E-006	0.00000E+000	-6.80000E-001	1.01522E-003	7	...........	-327.66
	728	0.1458	-6.69700E-001	-5.78989E-006	0.00000E+000	-6.70000E-001	1.16522E-003	7	...........	-327.66
	729	0.146	-6.59813E-001	-4.92027E-006	0.00000E+000	-6.60000E-001	1.11522E-003	7	...........	-327.66
	730	0.1462	-6.49775E-001	-4.05965E-006	0.00000E+000	-6.50000E-001	1.16522E-003	7	...........	-327.66
	731	0.1464	-6.39863E-001	-3.22279E-006	0.00000E+000	-6.40000E-001	1.04022E-003	7	...........	-327.66
	732	0.1466	-6.29750E-001	-2.40217E-006	0.00000E+000	-6.30000E-001	1.21522E-003	7	...........	-327.66
	733	0.1468	-6.19863E-001	-1.60381E-006	0.00000E+000	-6.20000E-001	1.14022E-003	7	...........	-327.66
	734	0.147	-6.09788E-001	-8.18958E-007	0.00000E+000	-6.10000E-001	1.11522E-003	7	...........	-327.66
	735	0.1472	-5.99913E-001	-4.83527E-008	0.00000E+000	-6.00000E-001	1.21522E-003	7	...........	-327.66
	736	0.1474	-5.89813E-001	7.06250E-007	0.00000E+000	-5.90000E-001	1.24022E-003	7	...........	-327.66
	737	0.1476	-5.79838E-001	1.44910E-006	0.00000E+000	-5.80000E-001	9.65224E-004	7	...........	-327.66
	738	0.1478	-5.69913E-001	2.17495E-006	0.00000E+000	-5.70000E-001	1.01522E-003	7	...........	-327.66
	739	0.148	-5.59963E-001	2.89205E-006	0.00000E+000	-5.60000E-001	1.09022E-003	7	...........	-327.66
	740	0.1482	-5.49688E-001	3.59814E-006	0.00000E+000	-5.50000E-001	1.11522E-003	7	...........	-327.66
	741	0.1484	-5.39975E-001	4.29499E-006	0.00000E+000	-5.40000E-001	1.09022E-003	7	...........	-327.66
	742	0.1486	-5.29913E-001	4.98058E-006	0.00000E+000	-5.30000E-001	1.16522E-003	7	...........	-327.66
	743	0.1488	-5.19988E-001	5.65492E-006	0.00000E+000	-5.20000E-001	1.04022E-003	7	...........	-327.66
	744	0.149	-5.09813E-001	6.32202E-006	0.00000E+000	-5.10000E-001	1.11522E-003	7	...........	-327.66
	745	0.1492	-4.99825E-001	6.98211E-006	0.00000E+000	-5.00000E-001	1.11522E-003	7	...........	-327.66
	746	0.1494	-4.89888E-001	7.63394E-006	0.00000E+000	-4.90000E-001	1.09022E-003	7	...........	-327.66
	747	0.1496	-4.79913E-001	8.27803E-006	0.00000E+000	-4.80000E-001	1.09022E-003	7	...........	-327.66
	748	0.1498	-4.69850E-001	8.91337E-006	0.00000E+000	-4.70000E-001	1.04022E-003	7	...........	-327.66
	749	0.15	-4.60038E-001	9.54370E-006	0.00000E+000	-4.60000E-001	9.90224E-004	7	...........	-327.66
	750	0.1502	-4.49950E-001	1.01665E-005	0.00000E+000	-4.50000E-001	1.16522E-003	7	...........	-327.66
	751	0.1504	-4.40013E-001	1.07834E-005	0.00000E+000	-4.40000E-001	1.09022E-003	7	...........	-327.66
	752	0.1506	-4.29850E-001	1.13915E-005	0.00000E+000	-4.30000E-001	1.21522E-003	7	...........	-327.66
	753	0.1508	-4.19963E-001	1.19953E-005	0.00000E+000	-4.20000E-001	1.19022E-003	7	...........	-327.66
	754	0.151	-4.10013E-001	1.25941E-005	0.00000E+000	-4.10000E-001	1.11522E-003	7	...........	-327.66
	755	0.1512	-4.00013E-001	1.31764E-005	0.00000E+000	-4.00000E-001	1.16522E-003	7	...........	-327.66
	756	0.1514	-3.89925E-001	1.37558E-005	0.00000E+000	-3.90000E-001	1.14022E-003	7	...........	-327.66
	757	0.1516	-3.79963E-001	1.43294E-005	0.00000E+000	-3.80000E-001	1.09022E-003	7	...........	-327.66
	758	0.1518	-3.69988E-001	1.48939E-005	0.00000E+000	-3.70000E-001	1.01522E-003	7	...........	-327.66
	759	0.152	-3.59950E-001	1.54483E-005	0.00000E+000	-3.60000E-001	1.14022E-003	7	...........	-327.66
	760	0.1522	-3.49900E-001	1.59921E-005	0.00000E+000	-3.50000E-001	1.06522E-003	7	...........	-327.66
	761	0.1524	-3.40013E-001	1.65292E-005	0.00000E+000	-3.40000E-001	9.65224E-004	7	...........	-327.66
	762	0.1526	-3.30013E-001	1.70605E-005	0.00000E+000	-3.30000E-001	1.09022E-003	7	...........	-327.66
	763	0.1528	-3.20050E-001	1.75758E-005	0.00000E+000	-3.20000E-001	1.04022E-003	7	...........	-327.66
	764	0.153	-3.09875E-001	1.80824E-005	0.00000E+000	-3.10000E-001	1.19022E-003	7	...........	-327.66
	765	0.1532	-3.00013E-001	1.85754E-005	0.00000E+000	-3.00000E-001	1.04022E-003	7	...........	-327.66
	766	0.1534	-2.89888E-001	1.90663E-005	0.00000E+000	-2.90000E-001	1.14022E-003	7	...........	-327.66
	767	0.1536	-2.80063E-001	1.95351E-005	0.00000E+000	-2.80000E-001	1.19022E-003	7	...........	-327.66
	768	0.1538	-2.69950E-001	1.99956E-005	0.00000E+000	-2.70000E-001	1.01522E-003	7	...........	-327.66
	769	0.154	-2.59988E-001	2.04494E-005	0.00000E+000	-2.60000E-001	9.65224E-004	7	...........	-327.66
	770	0.1542	-2.50063E-001	2.08907E-005	0.00000E+000	-2.50000E-001	1.04022E-003	7	...........	-327.66
	771	0.1544	-2.40063E-001	2.13193E-005	0.00000E+000	-2.40000E-001	1.16522E-003	7	...........	-327.66
	772	0.1546	-2.29925E-001	2.17346E-005	0.00000E+000	-2.30000E-001	1.16522E-003	7	...........	-327.66
	773	0.1548	-2.19950E-001	2.21384E-005	0.00000E+000	-2.20000E-001	1.06522E-003	7	...........	-327.66
	774	0.155	-2.10075E-001	2.25317E-005	0.00000E+000	-2.10000E-001	1.04022E-003	7	...........	-327.66
	775	0.1552	-1.99988E-001	2.29123E-005	0.00000E+000	-2.00000E-001	1.04022E-003	7	...........	-327.66
	776	0.1554	-1.89913E-001	2.32806E-005	0.00000E+000	-1.90000E-001	1.09022E-003	7	...........	-327.66
	777	0.1556	-1.80000E-001	2.36356E-005	0.00000E+000	-1.80000E-001	1.11522E-003	7	...........	-327.66
	778	0.1558	-1.70075E-001	2.39817E-005	0.00000E+000	-1.70000E-001	1.11522E-003	7	...........	-327.66
	779	0.156	-1.60050E-001	2.43167E-005	0.00000E+000	-1.60000E-001	1.01522E-003	7	...........	-327.66
	780	0.1562	-1.50038E-001	2.46443E-005	0.00000E+000	-1.50000E-001	1.14022E-003	7	...........	-327.66
	781	0.1564	-1.39988E-001	2.49593E-005	0.00000E+000	-1.40000E-001	1.14022E-003	7	...........	-327.66
	782	0.1566	-1.30063E-001	2.52601E-005	0.00000E+000	-1.30000E-001	1.06522E-003	7	...........	-327.66
	783	0.1568	-1.20050E-001	2.55534E-005	0.00000E+000	-1.20000E-001	1.19022E-003	7	...........	-327.66
	784	0.157	-1.10075E-001	2.58407E-005	0.00000E+000	-1.10000E-001	1.09022E-003	7	...........	-327.66
	785	0.1572	-1.00050E-001	2.61200E-005	0.00000E+000	-1.00000E-001	1.19022E-003	7	...........	-327.66
	786	0.1574	-8.99752E-002	2.63890E-005	0.00000E+000	-9.00000E-002	1.21522E-003	7	...........	-327.66
	787	0.1576	-8.00377E-002	2.66485E-005	0.00000E+000	-8.00000E-002	1.24022E-003	7	...........	-327.66
	788	0.1578	-6.99877E-002	2.68983E-005	0.00000E+000	-7.00000E-002	1.09022E-003	7	...........	-327.66
	789	0.158	-6.00002E-002	2.71441E-005	0.00000E+000	-6.00000E-002	1.11522E-003	7	...........	-327.66
	790	0.1582	-5.00502E-002	2.73834E-005	0.00000E+000	-5.00000E-002	9.90224E-004	7	...........	-327.66
	791	0.1584	-4.00377E-002	2.76174E-005	0.00000E+000	-4.00000E-002	1.04022E-003	7	...........	-327.66
	792	0.1586	-2.99502E-002	2.78462E-005	0.00000E+000	-3.00000E-002	1.16522E-003	7	...........	-327.66
	793	0.1588	-1.99752E-002	2.80722E-005	0.00000E+000	-2.00000E-002	1.11522E-003	7	...........	-327.66
	794	0.159	-9.86269E-003	2.82878E-005	0.00000E+000	-1.00000E-002	1.16522E-003	7	...........	-327.66
	795	0.1592	3.73125E-005	2.84988E-005	0.00000E+000	-1.49012E-008	1.21522E-003	7	...........	-327.66
	796	0.1594	1.00123E-002	2.87003E-005	0.00000E+000	9.99999E-003	1.06522E-003	7	...........	-327.66
	797	0.1596	2.00373E-002	2.88931E-005	0.00000E+000	2.00000E-002	9.40224E-004	7	...........	-327.66
	798	0.1598	2.99498E-002	2.90741E-005	0.00000E+000	3.00000E-002	1.11522E-003	7	...........	-327.66
	799	0.16	3.98123E-002	2.92439E-005	0.00000E+000	4.00000E-002	1.14022E-003	7	...........	-327.66
	800	0.1602	4.99373E-002	2.94052E-005	0.00000E+000	5.00000E-002	1.19022E-003	7	...........	-327.66
	801	0.1604	6.00123E-002	2.95554E-005	0.00000E+000	6.00000E-002	1.16522E-003	7	...........	-327.66
	802	0.1606	6.99873E-002	2.96967E-005	0.00000E+000	7.00000E-002	1.06522E-003	7	...........	-327.66
	803	0.1608	7.99373E-002	2.98242E-005	0.00000E+000	8.00000E-002	1.11522E-003	7	...........	-327.66
	804	0.161	9.01123E-002	2.99455E-005	0.00000E+000	9.00000E-002	1.01522E-003	7	...........	-327.66
	805	0.1612	9.99623E-002	3.00567E-005	0.00000E+000	1.00000E-001	9.65224E-004	7	...........	-327.66
	806	0.1614	1.10000E-001	3.01555E-005	0.00000E+000	1.10000E-001	1.01522E-003	7	...........	-327.66
	807	0.1616	1.20087E-001	3.02430E-005	0.00000E+000	1.20000E-001	1.09022E-003	7	...........	-327.66
	808	0.1618	1.29950E-001	3.03228E-005	0.00000E+000	1.30000E-001	1.24022E-003	7	...........	-327.66
	809	0.162	1.40100E-001	3.03905E-005	0.00000E+000	1.40000E-001	1.06522E-003	7	...........	-327.66
	810	0.1622	1.49950E-001	3.04518E-005	0.00000E+000	1.50000E-001	1.14022E-003	7	...........	-327.66
	811	0.1624	1.59962E-001	3.04963E-005	0.00000E+000	1.60000E-001	1.11522E-003	7	...........	-327.66
	812	0.1626	1.70025E-001	3.05423E-005	0.00000E+000	1.70000E-001	1.14022E-003	7	...........	-327.66
	813	0.1628	1.79962E-001	3.05741E-005	0.00000E+000	1.80000E-001	1.11522E-003	7	...........	-327.66
	814	0.163	1.89975E-001	3.05996E-005	0.00000E+000	1.90000E-001	1.14022E-003	7	...........	-327.66
	815	0.1632	1.99987E-001	3.06228E-005	0.00000E+000	2.00000E-001	1.06522E-003	7	...........	-327.66
	816	0.1634	2.09937E-001	3.06353E-005	0.00000E+000	2.10000E-001	1.21522E-003	7	...........	-327.66
	817	0.1636	2.19887E-001	3.06416E-005	0.00000E+000	2.20000E-001	1.24022E-003	7	...........	-327.66
	818	0.1638	2.29937E-001	3.06431E-005	0.00000E+000	2.30000E-001	1.14022E-003	7	...........	-327.66
	819	0.164	2.39962E-001	3.06413E-005	0.00000E+000	2.40000E-001	1.21522E-003	7	...........	-327.66
	820	0.1642	2.49925E-001	3.06353E-005	0.00000E+000	2.50000E-001	1.14022E-003	7	...........	-327.66
	821	0.1644	2.59937E-001	3.06226E-005	0.00000E+000	2.60000E-001	1.01522E-003	7	...........	-327.66
	822	0.1646	2.70037E-001	3.06096E-005	0.00000E+000	2.70000E-001	1.29022E-003	7	...........	-327.66
	823	0.1648	2.79950E-001	3.05901E-005	0.00000E+000	2.80000E-001	1.04022E-003	7	...........	-327.66
	824	0.165	2.89962E-001	3.05761E-005	0.00000E+000	2.90000E-001	1.24022E-003	7	...........	-327.66
	825	0.1652	2.99937E-001	3.05488E-005	0.00000E+000	3.00000E-001	1.06522E-003	7	...........	-327.66
	826	0.1654	3.09912E-001	3.05298E-005	0.00000E+000	3.10000E-001	1.29022E-003	7	...........	-327.66
	827	0.1656	3.19937E-001	3.04976E-005	0.00000E+000	3.20000E-001	1.06522E-003	7	...........	-327.66
	828	0.1658	3.29925E-001	3.04723E-005	0.00000E+000	3.30000E-001	1.14022E-003	7	...........	-327.66
	829	0.166	3.39937E-001	3.04408E-005	0.00000E+000	3.40000E-001	1.21522E-003	7	...........	-327.66
	830	0.1662	3.50037E-001	3.04135E-005	0.00000E+000	3.50000E-001	1.14022E-003	7	...........	-327.66
	831	0.1664	3.59912E-001	3.03780E-005	0.00000E+000	3.60000E-001	1.14022E-003	7	...........	-327.66
	832	0.1666	3.70000E-001	3.03490E-005	0.00000E+000	3.70000E-001	1.11522E-003	7	...........	-327.66
	833	0.1668	3.79937E-001	3.03115E-005	0.00000E+000	3.80000E-001	1.29022E-003	7	...........	-327.66
	834	0.167	3.89950E-001	3.02788E-005	0.00000E+000	3.90000E-001	1.24022E-003	7	...........	-327.66
	835	0.1672	3.99925E-001	3.02485E-005	0.00000E+000	4.00000E-001	1.21522E-003	7	...........	-327.66
	836	0.1674	4.09937E-001	3.02158E-005	0.00000E+000	4.10000E-001	1.09022E-003	7	...........	-327.66
	837	0.1676	4.20025E-001	3.01788E-005	0.00000E+000	4.20000E-001	1.19022E-003	7	...........	-327.66
	838	0.1678	4.29912E-001	3.01438E-005	0.00000E+000	4.30000E-001	1.04022E-003	7	...........	-327.66
	839	0.168	4.39887E-001	3.01100E-005	0.00000E+000	4.40000E-001	1.09022E-003	7	...........	-327.66
	840	0.1682	4.50100E-001	3.00838E-005	0.00000E+000	4.50000E-001	1.11522E-003	7	...........	-327.66
	841	0.1684	4.59937E-001	3.00490E-005	0.00000E+000	4.60000E-001	1.09022E-003	7	...........	-327.66
	842	0.1686	4.69875E-001	3.00235E-005	0.00000E+000	4.70000E-001	1.21522E-003	7	...........	-327.66
	843	0.1688	4.79937E-001	2.99947E-005	0.00000E+000	4.80000E-001	1.11522E-003	7	...........	-327.66
	844	0.169	4.89887E-001	2.99697E-005	0.00000E+000	4.90000E-001	1.11522E-003	7	...........	-327.66
	845	0.1692	4.99950E-001	2.99485E-005	0.00000E+000	5.00000E-001	1.09022E-003	7	...........	-327.66
	846	0.1694	5.09925E-001	2.99240E-005	0.00000E+000	5.10000E-001	1.24022E-003	7	...........	-327.66
	847	0.1696	5.19925E-001	2.99070E-005	0.00000E+000	5.20000E-001	1.14022E-003	7	...........	-327.66
	848	0.1698	5.29962E-001	2.98887E-005	0.00000E+000	5.30000E-001	1.24022E-003	7	...........	-327.66
	849	0.17	5.39937E-001	2.98777E-005	0.00000E+000	5.40000E-001	1.11522E-003	7	...........	-327.66
	850	0.1702	5.49925E-001	2.98650E-005	0.00000E+000	5.50000E-001	1.21522E-003	7	...........	-327.66
	851	0.1704	5.59937E-001	2.98562E-005	0.00000E+000	5.60000E-001	1.11522E-003	7	...........	-327.66
	852	0.1706	5.69950E-001	2.98527E-005	0.00000E+000	5.70000E-001	1.04022E-003	7	...........	-327.66
	853	0.1708	5.80037E-001	2.98537E-005	0.00000E+000	5.80000E-001	1.19022E-003	7	...........	-327.66
	854	0.171	5.89925E-001	2.98530E-005	0.00000E+000	5.90000E-001	1.29022E-003	7	...........	-327.66
	855	0.1712	5.99962E-001	2.98600E-005	0.00000E+000	6.00000E-001	1.29022E-003	7	...........	-327.66
CURVE4	TABLE
	Pt	T	Vf	Im	Vu	Sig	Ach	IERange	Over	Temp
	#	s	V vs. Ref.	A	V	V	V	#	bits	deg C
	856	0.1714	5.89962E-001	2.73534E-005	0.00000E+000	5.90000E-001	1.04022E-003	7	...........	-327.66
	857	0.1716	5.79962E-001	2.50026E-005	0.00000E+000	5.80000E-001	1.14022E-003	7	...........	-327.66
	858	0.1718	5.70025E-001	2.30443E-005	0.00000E+000	5.70000E-001	1.11522E-003	7	...........	-327.66
	859	0.172	5.59912E-001	2.13468E-005	0.00000E+000	5.60000E-001	1.14022E-003	7	...........	-327.66
	860	0.1722	5.49975E-001	1.98226E-005	0.00000E+000	5.50000E-001	1.16522E-003	7	...........	-327.66
	861	0.1724	5.39937E-001	1.84444E-005	0.00000E+000	5.40000E-001	1.29022E-003	7	...........	-327.66
	862	0.1726	5.29987E-001	1.71697E-005	0.00000E+000	5.30000E-001	1.04022E-003	7	...........	-327.66
	863	0.1728	5.19975E-001	1.59756E-005	0.00000E+000	5.20000E-001	1.19022E-003	7	...........	-327.66
	864	0.173	5.09937E-001	1.48569E-005	0.00000E+000	5.10000E-001	1.09022E-003	7	...........	-327.66
	865	0.1732	4.99987E-001	1.37983E-005	0.00000E+000	5.00000E-001	1.29022E-003	7	...........	-327.66
	866	0.1734	4.89925E-001	1.27946E-005	0.00000E+000	4.90000E-001	1.01522E-003	7	...........	-327.66
	867	0.1736	4.79937E-001	1.18285E-005	0.00000E+000	4.80000E-001	9.40224E-004	7	...........	-327.66
	868	0.1738	4.69975E-001	1.09051E-005	0.00000E+000	4.70000E-001	1.11522E-003	7	...........	-327.66
	869	0.174	4.59962E-001	1.00225E-005	0.00000E+000	4.60000E-001	1.09022E-003	7	...........	-327.66
	870	0.1742	4.50012E-001	9.17215E-006	0.00000E+000	4.50000E-001	1.04022E-003	7	...........	-327.66
	871	0.1744	4.39937E-001	8.34704E-006	0.00000E+000	4.40000E-001	9.65224E-004	7	...........	-327.66
	872	0.1746	4.30012E-001	7.54843E-006	0.00000E+000	4.30000E-001	1.19022E-003	7	...........	-327.66
	873	0.1748	4.20050E-001	6.78008E-006	0.00000E+000	4.20000E-001	1.16522E-003	7	...........	-327.66
	874	0.175	4.10037E-001	6.02948E-006	0.00000E+000	4.10000E-001	1.04022E-003	7	...........	-327.66
	875	0.1752	3.99937E-001	5.30413E-006	0.00000E+000	4.00000E-001	1.06522E-003	7	...........	-327.66
	876	0.1754	3.90012E-001	4.60128E-006	0.00000E+000	3.90000E-001	1.09022E-003	7	...........	-327.66
	877	0.1756	3.79962E-001	3.91069E-006	0.00000E+000	3.80000E-001	1.21522E-003	7	...........	-327.66
	878	0.1758	3.70112E-001	3.24360E-006	0.00000E+000	3.70000E-001	1.11522E-003	7	...........	-327.66
	879	0.176	3.60062E-001	2.58776E-006	0.00000E+000	3.60000E-001	1.04022E-003	7	...........	-327.66
	880	0.1762	3.50187E-001	1.95342E-006	0.00000E+000	3.50000E-001	9.90224E-004	7	...........	-327.66
	881	0.1764	3.39962E-001	1.33384E-006	0.00000E+000	3.40000E-001	1.11522E-003	7	...........	-327.66
	882	0.1766	3.30200E-001	7.31254E-007	0.00000E+000	3.30000E-001	1.14022E-003	7	...........	-327.66
	883	0.1768	3.20087E-001	1.32672E-007	0.00000E+000	3.20000E-001	1.16522E-003	7	...........	-327.66
	884	0.177	3.10075E-001	-4.52158E-007	0.00000E+000	3.10000E-001	1.21522E-003	7	...........	-327.66
	885	0.1772	3.00012E-001	-1.02099E-006	0.00000E+000	3.00000E-001	1.21522E-003	7	...........	-327.66
	886	0.1774	2.90062E-001	-1.57581E-006	0.00000E+000	2.90000E-001	9.90224E-004	7	...........	-327.66
	887	0.1776	2.79987E-001	-2.12339E-006	0.00000E+000	2.80000E-001	1.16522E-003	7	...........	-327.66
	888	0.1778	2.70300E-001	-2.65946E-006	0.00000E+000	2.70000E-001	1.21522E-003	7	...........	-327.66
	889	0.178	2.59987E-001	-3.18478E-006	0.00000E+000	2.60000E-001	1.14022E-003	7	...........	-327.66
	890	0.1782	2.50100E-001	-3.70035E-006	0.00000E+000	2.50000E-001	1.19022E-003	7	...........	-327.66
	891	0.1784	2.40125E-001	-4.21117E-006	0.00000E+000	2.40000E-001	1.16522E-003	7	...........	-327.66
	892	0.1786	2.30112E-001	-4.70924E-006	0.00000E+000	2.30000E-001	1.24022E-003	7	...........	-327.66
	893	0.1788	2.20037E-001	-5.20155E-006	0.00000E+000	2.20000E-001	1.16522E-003	7	...........	-327.66
	894	0.179	2.10125E-001	-5.68712E-006	0.00000E+000	2.10000E-001	1.16522E-003	7	...........	-327.66
	895	0.1792	2.00050E-001	-6.15869E-006	0.00000E+000	2.00000E-001	1.04022E-003	7	...........	-327.66
	896	0.1794	1.90175E-001	-6.63325E-006	0.00000E+000	1.90000E-001	1.19022E-003	7	...........	-327.66
	897	0.1796	1.80025E-001	-7.09406E-006	0.00000E+000	1.80000E-001	1.11522E-003	7	...........	-327.66
	898	0.1798	1.70250E-001	-7.54737E-006	0.00000E+000	1.70000E-001	1.09022E-003	7	...........	-327.66
	899	0.18	1.60125E-001	-7.99619E-006	0.00000E+000	1.60000E-001	1.16522E-003	7	...........	-327.66
	900	0.1802	1.50262E-001	-8.43825E-006	0.00000E+000	1.50000E-001	1.01522E-003	7	...........	-327.66
