EXPLAIN
TAG	CORPOT
TITLE	LABEL	Open Circuit Potential	Test Identifier
DATE	LABEL	5/9/2025	Date
TIME	LABEL	15:10:24	Time
NOTES	NOTES	1	Notes...
	
PSTAT	PSTAT	REF600P-43058	Potentiostat
TIMEOUT	QUANT	6.00000E+001	Total Time (s)
SAMPLETIME	QUANT	5.00000E-001	Sample Period (s)
STABILITY	QUANT	0.00000E+000	Stability (mV/s)
AREA	QUANT	1.00000E+000	Sample Area (cm^2)
SEQUENCER	TOGGLE	TRUE	Run as Sequence
PSTATMODEL	IQUANT	7	Pstat Model
PSTATSECTION	LABEL	REF600P-43058	Pstat Section
PSTATSERIALNO	LABEL	43058	Pstat Serial Number
CTRLMODE	IQUANT	1	Control Mode
ELECTROMETER	IQUANT	0	RE=0 or CS=1
IESTAB	IQUANT	2	I/E Stability
CASPEED	IQUANT	4	Control Amp Speed
CONVENTION	IQUANT	1	Current Convention
ICHRANGE	IQUANT	2	Ich Range
ICHRANGEMODE	TOGGLE	T	Ich Auto Range
ICHOFFSETENABLE	TOGGLE	F	Ich Offset Enable
ICHOFFSET	QUANT	0	Ich Offset (V)
ICHFILTER	IQUANT	3	Ich Filter
VCHRANGE	IQUANT	3	Vch Range
VCHRANGEMODE	TOGGLE	T	Vch Auto Range
VCHOFFSETENABLE	TOGGLE	F	Vch Offset Enable
VCHOFFSET	QUANT	0	Vch Offset (V)
VCHFILTER	IQUANT	3	Vch Filter
ACHRANGE	IQUANT	2	Ach Range
ACHOFFSETENABLE	TOGGLE	F	Ach Offset Enable
ACHOFFSET	QUANT	0	Ach Offset (V)
ACHFILTER	IQUANT	1	Ach Filter
IERANGELOWERLIMIT	IQUANT	1	I/E Range Lower Limit
IERANGEMODE	TOGGLE	F	I/E AutoRange
IERANGE	IQUANT	10	I/E Range
POSFEEDENABLE	TOGGLE	F	Positive Feedback IR Comp
POSFEEDRESISTANCE	QUANT	0	Positive Feedback Resistance (ohm)
ACHSELECT	IQUANT	4	Ach Select
SENSECABLEID	IQUANT	7	Sense Cable ID
PWRCABLEID	IQUANT	7	Power Cable ID
DCCALDATE	LABEL	5/8/2025	DC Calibration Date
ACCALDATE	LABEL	5/8/2025	AC Calibration Date
THERMOSELECT	IQUANT	1	Thermo Select
FRAMEWORKVERSION	LABEL	7.10.4	Framework Version
INSTRUMENTVERSION	LABEL	5.01	Instrument Version
COMMVERSION	LABEL	5.10	Communications Version
CPUPLDVERSION	LABEL	6.00	CPU PLD Version
CTRLPLDVERSION	LABEL	3.21	CTRL PLD Version
PSTATPLDVERSION	LABEL	0.00	PSTAT PLD Version
CURVE	TABLE	118
	Pt	T	Vf	Vm	Ach	Over	Temp
	#	s	V vs. Ref.	V	V	bits	deg C
	0	0.508333	1.58619E-001	1.58619E-001	1.44492E-003	...........	-327.66
	1	1.01667	1.58619E-001	1.58613E-001	1.45726E-003	...........	-327.66
	2	1.525	1.58618E-001	1.58603E-001	1.43919E-003	...........	-327.66
	3	2.03333	1.58616E-001	1.58597E-001	1.43762E-003	...........	-327.66
	4	2.54167	1.58611E-001	1.58589E-001	1.43156E-003	...........	-327.66
	5	3.05	1.58605E-001	1.58586E-001	1.44099E-003	...........	-327.66
	6	3.55833	1.58598E-001	1.58586E-001	1.43636E-003	...........	-327.66
	7	4.06667	1.58592E-001	1.58585E-001	1.44936E-003	...........	-327.66
	8	4.575	1.58588E-001	1.58581E-001	1.44002E-003	...........	-327.66
	9	5.08333	1.58586E-001	1.58573E-001	1.44209E-003	...........	-327.66
	10	5.59167	1.58583E-001	1.58556E-001	1.45859E-003	...........	-327.66
	11	6.1	1.58578E-001	1.58546E-001	1.44662E-003	...........	-327.66
	12	6.60833	1.58570E-001	1.58543E-001	1.45026E-003	...........	-327.66
	13	7.11667	1.58560E-001	1.58535E-001	1.43929E-003	...........	-327.66
	14	7.625	1.58551E-001	1.58522E-001	1.44876E-003	...........	-327.66
	15	8.13333	1.58542E-001	1.58513E-001	1.44252E-003	...........	-327.66
	16	8.64167	1.58533E-001	1.58508E-001	1.44226E-003	...........	-327.66
	17	9.15	1.58524E-001	1.58505E-001	1.43946E-003	...........	-327.66
	18	9.6583	1.58517E-001	1.58503E-001	1.45099E-003	...........	-327.66
	19	10.1667	1.58511E-001	1.58497E-001	1.44079E-003	...........	-327.66
	20	10.675	1.58506E-001	1.58487E-001	1.44352E-003	...........	-327.66
	21	11.1833	1.58501E-001	1.58476E-001	1.45072E-003	...........	-327.66
	22	11.6917	1.58495E-001	1.58470E-001	1.44869E-003	...........	-327.66
	23	12.2	1.58487E-001	1.58467E-001	1.44959E-003	...........	-327.66
	24	12.7083	1.58479E-001	1.58464E-001	1.45432E-003	...........	-327.66
	25	13.2167	1.58473E-001	1.58460E-001	1.45732E-003	...........	-327.66
	26	13.725	1.58468E-001	1.58448E-001	1.44862E-003	...........	-327.66
	27	14.2333	1.58463E-001	1.58440E-001	1.45732E-003	...........	-327.66
	28	14.7417	1.58457E-001	1.58433E-001	1.44689E-003	...........	-327.66
	29	15.25	1.58449E-001	1.58427E-001	1.45632E-003	...........	-327.66
	30	15.7583	1.58442E-001	1.58425E-001	1.44246E-003	...........	-327.66
	31	16.2667	1.58435E-001	1.58425E-001	1.44779E-003	...........	-327.66
	32	16.775	1.58430E-001	1.58421E-001	1.44619E-003	...........	-327.66
	33	17.2833	1.58426E-001	1.58416E-001	1.45152E-003	...........	-327.66
	34	17.7917	1.58423E-001	1.58404E-001	1.44386E-003	...........	-327.66
	35	18.3	1.58419E-001	1.58392E-001	1.43962E-003	...........	-327.66
	36	18.8083	1.58413E-001	1.58382E-001	1.45066E-003	...........	-327.66
	37	19.3167	1.58404E-001	1.58373E-001	1.42236E-003	...........	-327.66
	38	19.825	1.58394E-001	1.58363E-001	1.43859E-003	...........	-327.66
	39	20.3333	1.58384E-001	1.58352E-001	1.43879E-003	...........	-327.66
	40	20.8417	1.58374E-001	1.58348E-001	1.42759E-003	...........	-327.66
	41	21.35	1.58365E-001	1.58346E-001	1.44386E-003	...........	-327.66
	42	21.8583	1.58357E-001	1.58344E-001	1.43449E-003	...........	-327.66
	43	22.3667	1.58351E-001	1.58341E-001	1.43299E-003	...........	-327.66
	44	22.875	1.58347E-001	1.58333E-001	1.42769E-003	...........	-327.66
	45	23.3833	1.58343E-001	1.58322E-001	1.43906E-003	...........	-327.66
	46	23.8917	1.58338E-001	1.58313E-001	1.44416E-003	...........	-327.66
	47	24.4	1.58332E-001	1.58308E-001	1.44062E-003	...........	-327.66
	48	24.9083	1.58324E-001	1.58303E-001	1.44726E-003	...........	-327.66
	49	25.4167	1.58316E-001	1.58296E-001	1.43649E-003	...........	-327.66
	50	25.925	1.58309E-001	1.58282E-001	1.43876E-003	...........	-327.66
	51	26.4333	1.58301E-001	1.58273E-001	1.44029E-003	...........	-327.66
	52	26.9417	1.58293E-001	1.58270E-001	1.43342E-003	...........	-327.66
	53	27.45	1.58285E-001	1.58266E-001	1.43132E-003	...........	-327.66
	54	27.9583	1.58277E-001	1.58266E-001	1.43509E-003	...........	-327.66
	55	28.4667	1.58272E-001	1.58265E-001	1.43899E-003	...........	-327.66
	56	28.975	1.58268E-001	1.58264E-001	1.44932E-003	...........	-327.66
	57	29.4833	1.58266E-001	1.58258E-001	1.43952E-003	...........	-327.66
	58	29.9917	1.58264E-001	1.58245E-001	1.44312E-003	...........	-327.66
	59	30.5	1.58261E-001	1.58235E-001	1.43946E-003	...........	-327.66
	60	31.0083	1.58255E-001	1.58226E-001	1.45282E-003	...........	-327.66
	61	31.5167	1.58246E-001	1.58218E-001	1.44936E-003	...........	-327.66
	62	32.025	1.58237E-001	1.58208E-001	1.44592E-003	...........	-327.66
	63	32.5333	1.58227E-001	1.58197E-001	1.44389E-003	...........	-327.66
	64	33.0417	1.58218E-001	1.58190E-001	1.44186E-003	...........	-327.66
	65	33.55	1.58209E-001	1.58187E-001	1.44912E-003	...........	-327.66
	66	34.0583	1.58200E-001	1.58184E-001	1.45039E-003	...........	-327.66
	67	34.5667	1.58193E-001	1.58181E-001	1.44856E-003	...........	-327.66
	68	35.075	1.58188E-001	1.58172E-001	1.44332E-003	...........	-327.66
	69	35.5833	1.58183E-001	1.58161E-001	1.45299E-003	...........	-327.66
	70	36.0917	1.58178E-001	1.58153E-001	1.44249E-003	...........	-327.66
	71	36.6	1.58171E-001	1.58147E-001	1.44559E-003	...........	-327.66
	72	37.1083	1.58163E-001	1.58144E-001	1.44522E-003	...........	-327.66
	73	37.6167	1.58156E-001	1.58139E-001	1.45189E-003	...........	-327.66
	74	38.125	1.58149E-001	1.58132E-001	1.44982E-003	...........	-327.66
	75	38.6333	1.58144E-001	1.58121E-001	1.45596E-003	...........	-327.66
	76	39.1417	1.58138E-001	1.58111E-001	1.44306E-003	...........	-327.66
	77	39.65	1.58130E-001	1.58107E-001	1.45119E-003	...........	-327.66
	78	40.1583	1.58122E-001	1.58106E-001	1.45552E-003	...........	-327.66
	79	40.6667	1.58115E-001	1.58105E-001	1.44802E-003	...........	-327.66
	80	41.175	1.58110E-001	1.58104E-001	1.45402E-003	...........	-327.66
	81	41.6833	1.58107E-001	1.58100E-001	1.44959E-003	...........	-327.66
	82	42.1917	1.58104E-001	1.58091E-001	1.44089E-003	...........	-327.66
	83	42.7	1.58102E-001	1.58080E-001	1.45076E-003	...........	-327.66
	84	43.2083	1.58097E-001	1.58067E-001	1.43389E-003	...........	-327.66
	85	43.7167	1.58089E-001	1.58060E-001	1.43926E-003	...........	-327.66
	86	44.225	1.58080E-001	1.58048E-001	1.45262E-003	...........	-327.66
	87	44.7333	1.58070E-001	1.58041E-001	1.44462E-003	...........	-327.66
	88	45.2417	1.58060E-001	1.58031E-001	1.43519E-003	...........	-327.66
	89	45.75	1.58050E-001	1.58027E-001	1.43999E-003	...........	-327.66
	90	46.2583	1.58042E-001	1.58023E-001	1.44292E-003	...........	-327.66
	91	46.7667	1.58034E-001	1.58018E-001	1.43416E-003	...........	-327.66
	92	47.275	1.58028E-001	1.58010E-001	1.43976E-003	...........	-327.66
	93	47.7833	1.58022E-001	1.57997E-001	1.44392E-003	...........	-327.66
	94	48.2917	1.58016E-001	1.57992E-001	1.44889E-003	...........	-327.66
	95	48.8	1.58009E-001	1.57988E-001	1.44026E-003	...........	-327.66
	96	49.3083	1.58001E-001	1.57986E-001	1.43896E-003	...........	-327.66
	97	49.8167	1.57995E-001	1.57983E-001	1.43386E-003	...........	-327.66
	98	50.325	1.57990E-001	1.57978E-001	1.44379E-003	...........	-327.66
	99	50.8333	1.57986E-001	1.57968E-001	1.43939E-003	...........	-327.66
	100	51.3417	1.57981E-001	1.57955E-001	1.44562E-003	...........	-327.66
	101	51.85	1.57975E-001	1.57949E-001	1.43792E-003	...........	-327.66
	102	52.3583	1.57968E-001	1.57946E-001	1.44366E-003	...........	-327.66
	103	52.8667	1.57959E-001	1.57945E-001	1.43676E-003	...........	-327.66
	104	53.375	1.57953E-001	1.57945E-001	1.44346E-003	...........	-327.66
	105	53.8833	1.57948E-001	1.57944E-001	1.43572E-003	...........	-327.66
	106	54.3917	1.57946E-001	1.57938E-001	1.43896E-003	...........	-327.66
	107	54.9	1.57944E-001	1.57929E-001	1.43642E-003	...........	-327.66
	108	55.4083	1.57941E-001	1.57919E-001	1.44439E-003	...........	-327.66
	109	55.9167	1.57936E-001	1.57906E-001	1.44779E-003	...........	-327.66
	110	56.425	1.57928E-001	1.57894E-001	1.44246E-003	...........	-327.66
	111	56.9333	1.57919E-001	1.57884E-001	1.45042E-003	...........	-327.66
	112	57.4417	1.57908E-001	1.57875E-001	1.44819E-003	...........	-327.66
	113	57.95	1.57896E-001	1.57868E-001	1.45016E-003	...........	-327.66
	114	58.4583	1.57886E-001	1.57863E-001	1.44286E-003	...........	-327.66
	115	58.9667	1.57877E-001	1.57856E-001	1.45686E-003	...........	-327.66
	116	59.475	1.57870E-001	1.57847E-001	1.44919E-003	...........	-327.66
	117	59.9833	1.57863E-001	1.57842E-001	1.44812E-003	...........	-327.66
